# == pyFAI calibration ==
# SplineFile: None
# PixelSize: 7.900e-05, 7.900e-05 m
# PONI: 8.147e-02, 1.521e-01 m
# Distance Sample to Detector: 0.245492634507 m
# Rotations: 0.007172 -0.004022 -0.000000 rad
# 
# == Fit2d calibration ==
# Distance Sample-beamCenter: 245.501 mm
# Center: x=1903.102, y=1018.721 pix
# Tilt: 0.471 deg  TiltPlanRot: -150.715 deg
# 
# Wavelength: 3.1e-11
# Polarization factor: None
# Normalization factor: None
#
# q_A^-1	 I
5.897348048E-01  7.130512238E+01
5.945582270E-01  7.638056183E+01
5.993816491E-01  8.060891724E+01
6.042050713E-01  8.552311707E+01
6.090284934E-01  8.998976898E+01
6.138519156E-01  9.374077606E+01
6.186753378E-01  9.651682281E+01
6.234987599E-01  9.812941742E+01
6.283221821E-01  9.884565735E+01
6.331456042E-01  9.976145172E+01
6.379690264E-01  1.002911682E+02
6.427924486E-01  1.006828842E+02
6.476158707E-01  1.013636856E+02
6.524392929E-01  1.033124924E+02
6.572627151E-01  1.046070557E+02
6.620861372E-01  1.053533554E+02
6.669095594E-01  1.045265884E+02
6.717329815E-01  1.043102341E+02
6.765564037E-01  1.037639236E+02
6.813798259E-01  1.034594574E+02
6.862032480E-01  1.035659180E+02
6.910266702E-01  1.041510773E+02
6.958500923E-01  1.052911530E+02
7.006735145E-01  1.054966278E+02
7.054969367E-01  1.051311722E+02
7.103203588E-01  1.052432785E+02
7.151437810E-01  1.048744812E+02
7.199672031E-01  1.040203247E+02
7.247906253E-01  1.070505981E+02
7.296140475E-01  1.094017944E+02
7.344374696E-01  1.094794464E+02
7.392608918E-01  1.095410233E+02
7.440843140E-01  1.099196854E+02
7.489077361E-01  1.102836456E+02
7.537311583E-01  1.099344254E+02
7.585545804E-01  1.098895721E+02
7.633780026E-01  1.109600296E+02
7.682014248E-01  1.109739914E+02
7.730248469E-01  1.099941864E+02
7.778482691E-01  1.100268250E+02
7.826716912E-01  1.120858994E+02
7.874951134E-01  1.129425812E+02
7.923185356E-01  1.131156464E+02
7.971419577E-01  1.135837555E+02
8.019653799E-01  1.146496048E+02
8.067888020E-01  1.161805267E+02
8.116122242E-01  1.165579224E+02
8.164356464E-01  1.165561752E+02
8.212590685E-01  1.165632324E+02
8.260824907E-01  1.173422089E+02
8.309059129E-01  1.176319122E+02
8.357293350E-01  1.167457657E+02
8.405527572E-01  1.164396591E+02
8.453761793E-01  1.176013489E+02
8.501996015E-01  1.185884323E+02
8.550230237E-01  1.187869110E+02
8.598464458E-01  1.179635010E+02
8.646698680E-01  1.186106567E+02
8.694932901E-01  1.193634415E+02
8.743167123E-01  1.202487640E+02
8.791401345E-01  1.208604813E+02
8.839635566E-01  1.215717697E+02
8.887869788E-01  1.226181183E+02
8.936104009E-01  1.236427078E+02
8.984338231E-01  1.249387436E+02
9.032572453E-01  1.248588257E+02
9.080806674E-01  1.243762589E+02
9.129040896E-01  1.244710693E+02
9.177275118E-01  1.246264038E+02
9.225509339E-01  1.244055710E+02
9.273743561E-01  1.256019516E+02
9.321977782E-01  1.266545258E+02
9.370212004E-01  1.277334366E+02
9.418446226E-01  1.289418182E+02
9.466680447E-01  1.294555664E+02
9.514914669E-01  1.292037048E+02
9.563148890E-01  1.289526062E+02
9.611383112E-01  1.301132812E+02
9.659617334E-01  1.302893372E+02
9.707851555E-01  1.306007843E+02
9.756085777E-01  1.317230530E+02
9.804319998E-01  1.332417145E+02
9.852554220E-01  1.341248932E+02
9.900788442E-01  1.345080261E+02
9.949022663E-01  1.356548004E+02
9.997256885E-01  1.368903809E+02
1.004549111E+00  1.376796722E+02
1.009372533E+00  1.382401581E+02
1.014195955E+00  1.394876404E+02
1.019019377E+00  1.411112518E+02
1.023842799E+00  1.421615753E+02
1.028666221E+00  1.434397278E+02
1.033489644E+00  1.459478912E+02
1.038313066E+00  1.469289551E+02
1.043136488E+00  1.466734009E+02
1.047959910E+00  1.474164734E+02
1.052783332E+00  1.489936218E+02
1.057606754E+00  1.500920105E+02
1.062430177E+00  1.510333710E+02
1.067253599E+00  1.515686493E+02
1.072077021E+00  1.526649170E+02
1.076900443E+00  1.554877777E+02
1.081723865E+00  1.584925079E+02
1.086547287E+00  1.603514557E+02
1.091370710E+00  1.611221924E+02
1.096194132E+00  1.614045563E+02
1.101017554E+00  1.627301025E+02
1.105840976E+00  1.648267517E+02
1.110664398E+00  1.659608002E+02
1.115487820E+00  1.674317474E+02
1.120311243E+00  1.699962006E+02
1.125134665E+00  1.712411041E+02
1.129958087E+00  1.726248779E+02
1.134781509E+00  1.739662781E+02
1.139604931E+00  1.759847107E+02
1.144428353E+00  1.774503174E+02
1.149251775E+00  1.800889740E+02
1.154075198E+00  1.823805389E+02
1.158898620E+00  1.829140778E+02
1.163722042E+00  1.832728424E+02
1.168545464E+00  1.841478119E+02
1.173368886E+00  1.859523621E+02
1.178192308E+00  1.868225250E+02
1.183015731E+00  1.871225433E+02
1.187839153E+00  1.889763947E+02
1.192662575E+00  1.910635376E+02
1.197485997E+00  1.925548248E+02
1.202309419E+00  1.941610260E+02
1.207132841E+00  1.945458984E+02
1.211956264E+00  1.946891785E+02
1.216779686E+00  1.958438263E+02
1.221603108E+00  1.979646912E+02
1.226426530E+00  1.995779266E+02
1.231249952E+00  2.005348816E+02
1.236073374E+00  2.009383698E+02
1.240896797E+00  2.008984528E+02
1.245720219E+00  2.014653015E+02
1.250543641E+00  2.017045593E+02
1.255367063E+00  2.023162689E+02
1.260190485E+00  2.041140289E+02
1.265013907E+00  2.038839569E+02
1.269837330E+00  2.036117401E+02
1.274660752E+00  2.037354126E+02
1.279484174E+00  2.047036285E+02
1.284307596E+00  2.052555389E+02
1.289131018E+00  2.066961670E+02
1.293954440E+00  2.089105682E+02
1.298777862E+00  2.098648834E+02
1.303601285E+00  2.097867126E+02
1.308424707E+00  2.085448914E+02
1.313248129E+00  2.079299469E+02
1.318071551E+00  2.078677826E+02
1.322894973E+00  2.084856415E+02
1.327718395E+00  2.086314545E+02
1.332541818E+00  2.098164062E+02
1.337365240E+00  2.117143707E+02
1.342188662E+00  2.127115936E+02
1.347012084E+00  2.130807648E+02
1.351835506E+00  2.136258545E+02
1.356658928E+00  2.145998688E+02
1.361482351E+00  2.145093384E+02
1.366305773E+00  2.135054932E+02
1.371129195E+00  2.123577118E+02
1.375952617E+00  2.115803833E+02
1.380776039E+00  2.129416351E+02
1.385599461E+00  2.143242340E+02
1.390422884E+00  2.158668518E+02
1.395246306E+00  2.169027252E+02
1.400069728E+00  2.158878479E+02
1.404893150E+00  2.148911133E+02
1.409716572E+00  2.153088531E+02
1.414539994E+00  2.149940338E+02
1.419363417E+00  2.154085541E+02
1.424186839E+00  2.170605927E+02
1.429010261E+00  2.182958679E+02
1.433833683E+00  2.183023071E+02
1.438657105E+00  2.185258484E+02
1.443480527E+00  2.185722809E+02
1.448303949E+00  2.195120392E+02
1.453127372E+00  2.203985138E+02
1.457950794E+00  2.206338501E+02
1.462774216E+00  2.223165741E+02
1.467597638E+00  2.246416168E+02
1.472421060E+00  2.252404480E+02
1.477244482E+00  2.247229004E+02
1.482067905E+00  2.241522217E+02
1.486891327E+00  2.241602020E+02
1.491714749E+00  2.244056244E+02
1.496538171E+00  2.249280243E+02
1.501361593E+00  2.257779541E+02
1.506185015E+00  2.274946442E+02
1.511008438E+00  2.286968384E+02
1.515831860E+00  2.299333801E+02
1.520655282E+00  2.295141602E+02
1.525478704E+00  2.278240051E+02
1.530302126E+00  2.274394073E+02
1.535125548E+00  2.284994507E+02
1.539948971E+00  2.296613464E+02
1.544772393E+00  2.308099365E+02
1.549595815E+00  2.327113800E+02
1.554419237E+00  2.334936676E+02
1.559242659E+00  2.338136444E+02
1.564066081E+00  2.343798523E+02
1.568889504E+00  2.353623047E+02
1.573712926E+00  2.362552032E+02
1.578536348E+00  2.362505341E+02
1.583359770E+00  2.362261505E+02
1.588183192E+00  2.360090485E+02
1.593006614E+00  2.370076599E+02
1.597830036E+00  2.384875793E+02
1.602653459E+00  2.396670532E+02
1.607476881E+00  2.401314697E+02
1.612300303E+00  2.396879578E+02
1.617123725E+00  2.392622681E+02
1.621947147E+00  2.386703033E+02
1.626770569E+00  2.388765869E+02
1.631593992E+00  2.401535797E+02
1.636417414E+00  2.403202057E+02
1.641240836E+00  2.415344849E+02
1.646064258E+00  2.420459442E+02
1.650887680E+00  2.435156860E+02
1.655711102E+00  2.437514496E+02
1.660534525E+00  2.439260101E+02
1.665357947E+00  2.448459473E+02
1.670181369E+00  2.451967773E+02
1.675004791E+00  2.456962128E+02
1.679828213E+00  2.469236908E+02
1.684651635E+00  2.470081177E+02
1.689475058E+00  2.470655670E+02
1.694298480E+00  2.478923340E+02
1.699121902E+00  2.480788727E+02
1.703945324E+00  2.478321686E+02
1.708768746E+00  2.482492065E+02
1.713592168E+00  2.493049469E+02
1.718415590E+00  2.510500183E+02
1.723239013E+00  2.517699280E+02
1.728062435E+00  2.508588409E+02
1.732885857E+00  2.511644440E+02
1.737709279E+00  2.517783966E+02
1.742532701E+00  2.522829437E+02
1.747356123E+00  2.519987793E+02
1.752179546E+00  2.517353210E+02
1.757002968E+00  2.505847473E+02
1.761826390E+00  2.498359222E+02
1.766649812E+00  2.511817474E+02
1.771473234E+00  2.521503601E+02
1.776296656E+00  2.521888275E+02
1.781120079E+00  2.526363678E+02
1.785943501E+00  2.526955872E+02
1.790766923E+00  2.524527740E+02
1.795590345E+00  2.530152740E+02
1.800413767E+00  2.532402496E+02
1.805237189E+00  2.536212769E+02
1.810060612E+00  2.538233185E+02
1.814884034E+00  2.543533325E+02
1.819707456E+00  2.562989197E+02
1.824530878E+00  2.578452454E+02
1.829354300E+00  2.584539185E+02
1.834177722E+00  2.592553406E+02
1.839001145E+00  2.604143982E+02
1.843824567E+00  2.615652771E+02
1.848647989E+00  2.628664246E+02
1.853471411E+00  2.642077637E+02
1.858294833E+00  2.648239441E+02
1.863118255E+00  2.649593201E+02
1.867941677E+00  2.646793213E+02
1.872765100E+00  2.648187561E+02
1.877588522E+00  2.649624329E+02
1.882411944E+00  2.657976379E+02
1.887235366E+00  2.663794861E+02
1.892058788E+00  2.662818909E+02
1.896882210E+00  2.659702454E+02
1.901705633E+00  2.661012878E+02
1.906529055E+00  2.657400818E+02
1.911352477E+00  2.660481262E+02
1.916175899E+00  2.673011780E+02
1.920999321E+00  2.678082581E+02
1.925822743E+00  2.684999084E+02
1.930646166E+00  2.701983032E+02
1.935469588E+00  2.717133179E+02
1.940293010E+00  2.717902222E+02
1.945116432E+00  2.727324219E+02
1.949939854E+00  2.737912903E+02
1.954763276E+00  2.742987671E+02
1.959586699E+00  2.750287781E+02
1.964410121E+00  2.749111633E+02
1.969233543E+00  2.744320679E+02
1.974056965E+00  2.743196106E+02
1.978880387E+00  2.753045959E+02
1.983703809E+00  2.767600098E+02
1.988527232E+00  2.790609131E+02
1.993350654E+00  2.798641663E+02
1.998174076E+00  2.806449585E+02
2.002997498E+00  2.810135803E+02
2.007820920E+00  2.821719055E+02
2.012644342E+00  2.833294983E+02
2.017467764E+00  2.854697571E+02
2.022291187E+00  2.868421631E+02
2.027114609E+00  2.879480286E+02
2.031938031E+00  2.889635925E+02
2.036761453E+00  2.895379333E+02
2.041584875E+00  2.905348816E+02
2.046408297E+00  2.914861145E+02
2.051231720E+00  2.930135498E+02
2.056055142E+00  2.951177368E+02
2.060878564E+00  2.966957703E+02
2.065701986E+00  2.974317627E+02
2.070525408E+00  2.978241882E+02
2.075348830E+00  2.974454651E+02
2.080172253E+00  2.968223877E+02
2.084995675E+00  2.960671997E+02
2.089819097E+00  2.968454285E+02
2.094642519E+00  2.960990295E+02
2.099465941E+00  2.964854736E+02
2.104289363E+00  2.965748291E+02
2.109112786E+00  2.959157104E+02
2.113936208E+00  2.949349365E+02
2.118759630E+00  2.954656677E+02
2.123583052E+00  2.971744385E+02
2.128406474E+00  2.982948608E+02
2.133229896E+00  2.990148010E+02
2.138053319E+00  2.989252930E+02
2.142876741E+00  2.999263000E+02
2.147700163E+00  3.019398193E+02
2.152523585E+00  3.033113403E+02
2.157347007E+00  3.037463074E+02
2.162170429E+00  3.039285583E+02
2.166993851E+00  3.051242065E+02
2.171817274E+00  3.073130188E+02
2.176640696E+00  3.090584412E+02
2.181464118E+00  3.096681213E+02
2.186287540E+00  3.097478027E+02
2.191110962E+00  3.099124146E+02
2.195934384E+00  3.113938599E+02
2.200757807E+00  3.117817383E+02
2.205581229E+00  3.124683533E+02
2.210404651E+00  3.145867615E+02
2.215228073E+00  3.156288452E+02
2.220051495E+00  3.159216919E+02
2.224874917E+00  3.159780273E+02
2.229698340E+00  3.172850952E+02
2.234521762E+00  3.189463501E+02
2.239345184E+00  3.198901672E+02
2.244168606E+00  3.200737000E+02
2.248992028E+00  3.218452454E+02
2.253815450E+00  3.221716003E+02
2.258638873E+00  3.238017578E+02
2.263462295E+00  3.239820557E+02
2.268285717E+00  3.227937622E+02
2.273109139E+00  3.216567688E+02
2.277932561E+00  3.222627869E+02
2.282755983E+00  3.236960754E+02
2.287579406E+00  3.255245056E+02
2.292402828E+00  3.262068787E+02
2.297226250E+00  3.265271606E+02
2.302049672E+00  3.279789124E+02
2.306873094E+00  3.299739075E+02
2.311696516E+00  3.324020386E+02
2.316519938E+00  3.345728455E+02
2.321343361E+00  3.356300659E+02
2.326166783E+00  3.373516846E+02
2.330990205E+00  3.384860229E+02
2.335813627E+00  3.383677979E+02
2.340637049E+00  3.386773071E+02
2.345460471E+00  3.390242615E+02
2.350283894E+00  3.393990784E+02
2.355107316E+00  3.404994507E+02
2.359930738E+00  3.417142944E+02
2.364754160E+00  3.441937561E+02
2.369577582E+00  3.454293518E+02
2.374401004E+00  3.469530640E+02
2.379224427E+00  3.474297485E+02
2.384047849E+00  3.485265808E+02
2.388871271E+00  3.494454041E+02
2.393694693E+00  3.480207520E+02
2.398518115E+00  3.460066223E+02
2.403341537E+00  3.435538635E+02
2.408164960E+00  3.431179504E+02
2.412988382E+00  3.451643066E+02
2.417811804E+00  3.464432373E+02
2.422635226E+00  3.465866394E+02
2.427458648E+00  3.471776733E+02
2.432282070E+00  3.472958374E+02
2.437105492E+00  3.467170410E+02
2.441928915E+00  3.479678345E+02
2.446752337E+00  3.489202881E+02
2.451575759E+00  3.498964844E+02
2.456399181E+00  3.514028320E+02
2.461222603E+00  3.512908936E+02
2.466046025E+00  3.488464355E+02
2.470869448E+00  3.476210327E+02
2.475692870E+00  3.476957092E+02
2.480516292E+00  3.488378906E+02
2.485339714E+00  3.484932556E+02
2.490163136E+00  3.477527161E+02
2.494986558E+00  3.449340210E+02
2.499809981E+00  3.427206421E+02
2.504633403E+00  3.416115417E+02
2.509456825E+00  3.417485352E+02
2.514280247E+00  3.429823914E+02
2.519103669E+00  3.440210266E+02
2.523927091E+00  3.436803894E+02
2.528750514E+00  3.429575195E+02
2.533573936E+00  3.428262329E+02
2.538397358E+00  3.420504761E+02
2.543220780E+00  3.404759521E+02
2.548044202E+00  3.394687195E+02
2.552867624E+00  3.388034058E+02
2.557691047E+00  3.405113525E+02
2.562514469E+00  3.410752869E+02
2.567337891E+00  3.398095398E+02
2.572161313E+00  3.384665527E+02
2.576984735E+00  3.378237610E+02
2.581808157E+00  3.378126221E+02
2.586631579E+00  3.373097534E+02
2.591455002E+00  3.360592651E+02
2.596278424E+00  3.349659729E+02
2.601101846E+00  3.357686157E+02
2.605925268E+00  3.374433899E+02
2.610748690E+00  3.376526184E+02
2.615572112E+00  3.358782654E+02
2.620395535E+00  3.357858276E+02
2.625218957E+00  3.370631714E+02
2.630042379E+00  3.379299011E+02
2.634865801E+00  3.382885132E+02
2.639689223E+00  3.380316467E+02
2.644512645E+00  3.374760437E+02
2.649336068E+00  3.370608215E+02
2.654159490E+00  3.361427917E+02
2.658982912E+00  3.356309814E+02
2.663806334E+00  3.337637329E+02
2.668629756E+00  3.308772888E+02
2.673453178E+00  3.297601013E+02
2.678276601E+00  3.292347412E+02
2.683100023E+00  3.285081787E+02
2.687923445E+00  3.280684204E+02
2.692746867E+00  3.278224487E+02
2.697570289E+00  3.256041260E+02
2.702393711E+00  3.241479187E+02
2.707217134E+00  3.229396362E+02
2.712040556E+00  3.218249817E+02
2.716863978E+00  3.211603699E+02
2.721687400E+00  3.201604309E+02
2.726510822E+00  3.199465027E+02
2.731334244E+00  3.214064941E+02
2.736157666E+00  3.217590942E+02
2.740981089E+00  3.204884338E+02
2.745804511E+00  3.186943970E+02
2.750627933E+00  3.187288818E+02
2.755451355E+00  3.183804932E+02
2.760274777E+00  3.176548462E+02
2.765098199E+00  3.184193726E+02
2.769921622E+00  3.194777832E+02
2.774745044E+00  3.199262695E+02
2.779568466E+00  3.216938782E+02
2.784391888E+00  3.226521912E+02
2.789215310E+00  3.223598633E+02
2.794038732E+00  3.207453308E+02
2.798862155E+00  3.195508728E+02
2.803685577E+00  3.195691223E+02
2.808508999E+00  3.209671631E+02
2.813332421E+00  3.231044312E+02
2.818155843E+00  3.228824463E+02
2.822979265E+00  3.203606567E+02
2.827802688E+00  3.193353271E+02
2.832626110E+00  3.193409729E+02
2.837449532E+00  3.192560425E+02
2.842272954E+00  3.203728638E+02
2.847096376E+00  3.208410339E+02
2.851919798E+00  3.211665039E+02
2.856743221E+00  3.208702087E+02
2.861566643E+00  3.214125671E+02
2.866390065E+00  3.219187927E+02
2.871213487E+00  3.228340759E+02
2.876036909E+00  3.230272827E+02
2.880860331E+00  3.225341797E+02
2.885683753E+00  3.224616394E+02
2.890507176E+00  3.245430908E+02
2.895330598E+00  3.259024353E+02
2.900154020E+00  3.258365784E+02
2.904977442E+00  3.254705505E+02
2.909800864E+00  3.241684875E+02
2.914624286E+00  3.237065125E+02
2.919447709E+00  3.234338989E+02
2.924271131E+00  3.226563416E+02
2.929094553E+00  3.212556458E+02
2.933917975E+00  3.207034607E+02
2.938741397E+00  3.202886963E+02
2.943564819E+00  3.206557617E+02
2.948388242E+00  3.210578003E+02
2.953211664E+00  3.194689941E+02
2.958035086E+00  3.173600159E+02
2.962858508E+00  3.175261841E+02
2.967681930E+00  3.180152588E+02
2.972505352E+00  3.178327026E+02
2.977328775E+00  3.184747620E+02
2.982152197E+00  3.197316895E+02
2.986975619E+00  3.198698120E+02
2.991799041E+00  3.195009766E+02
2.996622463E+00  3.182697449E+02
3.001445885E+00  3.171654663E+02
3.006269308E+00  3.182631226E+02
3.011092730E+00  3.189146118E+02
3.015916152E+00  3.196651917E+02
3.020739574E+00  3.198539429E+02
3.025562996E+00  3.191488342E+02
3.030386418E+00  3.194813843E+02
3.035209840E+00  3.192613220E+02
3.040033263E+00  3.184760742E+02
3.044856685E+00  3.178759460E+02
3.049680107E+00  3.164994507E+02
3.054503529E+00  3.157941589E+02
3.059326951E+00  3.158900757E+02
3.064150373E+00  3.160280151E+02
3.068973796E+00  3.161560669E+02
3.073797218E+00  3.155229797E+02
3.078620640E+00  3.148008118E+02
3.083444062E+00  3.132179871E+02
3.088267484E+00  3.125817871E+02
3.093090906E+00  3.119172058E+02
3.097914329E+00  3.109696045E+02
3.102737751E+00  3.107379456E+02
3.107561173E+00  3.110434265E+02
3.112384595E+00  3.111021118E+02
3.117208017E+00  3.099816284E+02
3.122031439E+00  3.103820190E+02
3.126854862E+00  3.102350769E+02
3.131678284E+00  3.110396423E+02
3.136501706E+00  3.103867798E+02
3.141325128E+00  3.094628601E+02
3.146148550E+00  3.089568176E+02
3.150971972E+00  3.098034668E+02
3.155795395E+00  3.101589966E+02
3.160618817E+00  3.105682373E+02
3.165442239E+00  3.097202759E+02
3.170265661E+00  3.090156555E+02
3.175089083E+00  3.092320862E+02
3.179912505E+00  3.089465332E+02
3.184735927E+00  3.077908936E+02
3.189559350E+00  3.075199585E+02
3.194382772E+00  3.083290405E+02
3.199206194E+00  3.092041321E+02
3.204029616E+00  3.093204041E+02
3.208853038E+00  3.099868164E+02
3.213676460E+00  3.088186951E+02
3.218499883E+00  3.081805420E+02
3.223323305E+00  3.086341858E+02
3.228146727E+00  3.098139038E+02
3.232970149E+00  3.093568726E+02
3.237793571E+00  3.079508667E+02
3.242616993E+00  3.079565735E+02
3.247440416E+00  3.089252625E+02
3.252263838E+00  3.095254517E+02
3.257087260E+00  3.098186035E+02
3.261910682E+00  3.080979919E+02
3.266734104E+00  3.063567810E+02
3.271557526E+00  3.053768005E+02
3.276380949E+00  3.049803467E+02
3.281204371E+00  3.063981934E+02
3.286027793E+00  3.074875488E+02
3.290851215E+00  3.073410034E+02
3.295674637E+00  3.081007385E+02
3.300498059E+00  3.082520752E+02
3.305321481E+00  3.078794556E+02
3.310144904E+00  3.067304993E+02
3.314968326E+00  3.058723145E+02
3.319791748E+00  3.070505676E+02
3.324615170E+00  3.080447693E+02
3.329438592E+00  3.087231140E+02
3.334262014E+00  3.090358276E+02
3.339085437E+00  3.091036377E+02
3.343908859E+00  3.095855408E+02
3.348732281E+00  3.101343384E+02
3.353555703E+00  3.115122070E+02
3.358379125E+00  3.117320557E+02
3.363202547E+00  3.111236267E+02
3.368025970E+00  3.100667725E+02
3.372849392E+00  3.089602051E+02
3.377672814E+00  3.075999756E+02
3.382496236E+00  3.063537292E+02
3.387319658E+00  3.055705566E+02
3.392143080E+00  3.057410583E+02
3.396966503E+00  3.045339661E+02
3.401789925E+00  3.029143677E+02
3.406613347E+00  3.020723572E+02
3.411436769E+00  3.025755615E+02
3.416260191E+00  3.037973938E+02
3.421083613E+00  3.046431885E+02
3.425907036E+00  3.045198059E+02
3.430730458E+00  3.036317444E+02
3.435553880E+00  3.030725708E+02
3.440377302E+00  3.041907349E+02
3.445200724E+00  3.042613220E+02
3.450024146E+00  3.048299561E+02
3.454847568E+00  3.044424133E+02
3.459670991E+00  3.041635742E+02
3.464494413E+00  3.035718994E+02
3.469317835E+00  3.021145630E+02
3.474141257E+00  3.017861938E+02
3.478964679E+00  3.023845215E+02
3.483788101E+00  3.038317261E+02
3.488611524E+00  3.039242859E+02
3.493434946E+00  3.036012878E+02
3.498258368E+00  3.031787109E+02
3.503081790E+00  3.032383728E+02
3.507905212E+00  3.032499084E+02
3.512728634E+00  3.024763489E+02
3.517552057E+00  3.029413452E+02
3.522375479E+00  3.034690857E+02
3.527198901E+00  3.027952271E+02
3.532022323E+00  3.015859070E+02
3.536845745E+00  3.015214539E+02
3.541669167E+00  3.017596436E+02
3.546492590E+00  3.022883301E+02
3.551316012E+00  3.031094666E+02
3.556139434E+00  3.032377319E+02
3.560962856E+00  3.034631042E+02
3.565786278E+00  3.036972046E+02
3.570609700E+00  3.049300842E+02
3.575433123E+00  3.048858643E+02
3.580256545E+00  3.046444702E+02
3.585079967E+00  3.049550171E+02
3.589903389E+00  3.054545593E+02
3.594726811E+00  3.047094727E+02
3.599550233E+00  3.034596558E+02
3.604373655E+00  3.037469482E+02
3.609197078E+00  3.034486389E+02
3.614020500E+00  3.026875916E+02
3.618843922E+00  3.016027527E+02
3.623667344E+00  3.020765686E+02
3.628490766E+00  3.039240723E+02
3.633314188E+00  3.048224182E+02
3.638137611E+00  3.031665955E+02
3.642961033E+00  3.019109192E+02
3.647784455E+00  3.016888123E+02
3.652607877E+00  3.008542786E+02
3.657431299E+00  3.000864258E+02
3.662254721E+00  3.008338623E+02
3.667078144E+00  3.019341431E+02
3.671901566E+00  3.025433350E+02
3.676724988E+00  3.039592590E+02
3.681548410E+00  3.048982544E+02
3.686371832E+00  3.044539185E+02
3.691195254E+00  3.037705078E+02
3.696018677E+00  3.025915527E+02
3.700842099E+00  3.023816223E+02
3.705665521E+00  3.024508667E+02
3.710488943E+00  3.012694397E+02
3.715312365E+00  3.003383789E+02
3.720135787E+00  3.005209961E+02
3.724959210E+00  3.016301270E+02
3.729782632E+00  3.038051453E+02
3.734606054E+00  3.031877747E+02
3.739429476E+00  3.022327881E+02
3.744252898E+00  3.028535461E+02
3.749076320E+00  3.022750549E+02
3.753899742E+00  3.017405396E+02
3.758723165E+00  3.031138611E+02
3.763546587E+00  3.022005920E+02
3.768370009E+00  3.023733826E+02
3.773193431E+00  3.022074280E+02
3.778016853E+00  3.024398193E+02
3.782840275E+00  3.029860535E+02
3.787663698E+00  3.031047974E+02
3.792487120E+00  3.019441833E+02
3.797310542E+00  3.009885864E+02
3.802133964E+00  3.015911560E+02
3.806957386E+00  3.035027161E+02
3.811780808E+00  3.035194397E+02
3.816604231E+00  3.021330261E+02
3.821427653E+00  3.019883423E+02
3.826251075E+00  3.018401489E+02
3.831074497E+00  3.019474792E+02
3.835897919E+00  3.018756104E+02
3.840721341E+00  3.014709778E+02
3.845544764E+00  3.008017883E+02
3.850368186E+00  3.019112854E+02
3.855191608E+00  3.029020996E+02
3.860015030E+00  3.034495239E+02
3.864838452E+00  3.041205750E+02
3.869661874E+00  3.043423157E+02
3.874485297E+00  3.027632141E+02
3.879308719E+00  3.031390381E+02
3.884132141E+00  3.037282410E+02
3.888955563E+00  3.037005920E+02
3.893778985E+00  3.037719421E+02
3.898602407E+00  3.049070129E+02
3.903425829E+00  3.058862000E+02
3.908249252E+00  3.063363647E+02
3.913072674E+00  3.057654419E+02
3.917896096E+00  3.057962036E+02
3.922719518E+00  3.064549561E+02
3.927542940E+00  3.066523132E+02
3.932366362E+00  3.056480103E+02
3.937189785E+00  3.055396729E+02
3.942013207E+00  3.064331360E+02
3.946836629E+00  3.074766541E+02
3.951660051E+00  3.066722107E+02
3.956483473E+00  3.057875366E+02
3.961306895E+00  3.050927124E+02
3.966130318E+00  3.054281311E+02
3.970953740E+00  3.053734131E+02
3.975777162E+00  3.059017029E+02
3.980600584E+00  3.050628967E+02
3.985424006E+00  3.042532959E+02
3.990247428E+00  3.047100830E+02
3.995070851E+00  3.050605469E+02
3.999894273E+00  3.051428833E+02
4.004717695E+00  3.051404724E+02
4.009541117E+00  3.052867432E+02
4.014364539E+00  3.051597290E+02
4.019187961E+00  3.043440857E+02
4.024011384E+00  3.029757996E+02
4.028834806E+00  3.028100586E+02
4.033658228E+00  3.031382446E+02
4.038481650E+00  3.029719238E+02
4.043305072E+00  3.022297668E+02
4.048128494E+00  3.025635986E+02
4.052951916E+00  3.038727112E+02
4.057775339E+00  3.051896057E+02
4.062598761E+00  3.051210632E+02
4.067422183E+00  3.050211792E+02
4.072245605E+00  3.046943665E+02
4.077069027E+00  3.045789185E+02
4.081892449E+00  3.048124695E+02
4.086715872E+00  3.051091614E+02
4.091539294E+00  3.049707336E+02
4.096362716E+00  3.063462830E+02
4.101186138E+00  3.071472778E+02
4.106009560E+00  3.064468689E+02
4.110832982E+00  3.063629761E+02
4.115656405E+00  3.056082153E+02
4.120479827E+00  3.047933655E+02
4.125303249E+00  3.049588928E+02
4.130126671E+00  3.047402954E+02
4.134950093E+00  3.041905518E+02
4.139773515E+00  3.063803711E+02
4.144596938E+00  3.074562683E+02
4.149420360E+00  3.055657043E+02
4.154243782E+00  3.042590942E+02
4.159067204E+00  3.041445007E+02
4.163890626E+00  3.039344177E+02
4.168714048E+00  3.036043701E+02
4.173537470E+00  3.035068054E+02
4.178360893E+00  3.029956970E+02
4.183184315E+00  3.029303894E+02
4.188007737E+00  3.029414673E+02
4.192831159E+00  3.030960083E+02
4.197654581E+00  3.035848999E+02
4.202478003E+00  3.028823853E+02
4.207301426E+00  3.023910828E+02
4.212124848E+00  3.024743958E+02
4.216948270E+00  3.030231323E+02
4.221771692E+00  3.039961853E+02
4.226595114E+00  3.045953979E+02
4.231418536E+00  3.039906006E+02
4.236241959E+00  3.033876953E+02
4.241065381E+00  3.028835449E+02
4.245888803E+00  3.035684509E+02
4.250712225E+00  3.037587891E+02
4.255535647E+00  3.037796326E+02
4.260359069E+00  3.028834839E+02
4.265182492E+00  3.007327576E+02
4.270005914E+00  2.985794067E+02
4.274829336E+00  2.982467651E+02
4.279652758E+00  2.981515198E+02
4.284476180E+00  2.999927979E+02
4.289299602E+00  3.010815430E+02
4.294123025E+00  3.014845886E+02
4.298946447E+00  3.018495789E+02
4.303769869E+00  3.025416565E+02
4.308593291E+00  3.024175720E+02
4.313416713E+00  3.002408752E+02
4.318240135E+00  2.987814636E+02
4.323063557E+00  2.989445801E+02
4.327886980E+00  2.995195007E+02
4.332710402E+00  3.004851685E+02
4.337533824E+00  3.001577759E+02
4.342357246E+00  3.001812744E+02
4.347180668E+00  3.009735107E+02
4.352004090E+00  3.016557007E+02
4.356827513E+00  3.007876282E+02
4.361650935E+00  2.986224365E+02
4.366474357E+00  2.965312500E+02
4.371297779E+00  2.952950134E+02
4.376121201E+00  2.948406677E+02
4.380944623E+00  2.949613037E+02
4.385768046E+00  2.961083069E+02
4.390591468E+00  2.954340210E+02
4.395414890E+00  2.957598572E+02
4.400238312E+00  2.971227417E+02
4.405061734E+00  2.976311340E+02
4.409885156E+00  2.970152893E+02
4.414708579E+00  2.947579041E+02
4.419532001E+00  2.941537781E+02
4.424355423E+00  2.952107239E+02
4.429178845E+00  2.955708313E+02
4.434002267E+00  2.957134399E+02
4.438825689E+00  2.975614624E+02
4.443649112E+00  2.991691895E+02
4.448472534E+00  2.987401123E+02
4.453295956E+00  2.961321411E+02
4.458119378E+00  2.953437805E+02
4.462942800E+00  2.953381653E+02
4.467766222E+00  2.957219849E+02
4.472589644E+00  2.970285645E+02
4.477413067E+00  2.974270020E+02
4.482236489E+00  2.969007568E+02
4.487059911E+00  2.948809509E+02
4.491883333E+00  2.925871277E+02
4.496706755E+00  2.912781067E+02
4.501530177E+00  2.918803711E+02
4.506353600E+00  2.906464539E+02
4.511177022E+00  2.897895508E+02
4.516000444E+00  2.901911621E+02
4.520823866E+00  2.908480530E+02
4.525647288E+00  2.918342590E+02
4.530470710E+00  2.921221619E+02
4.535294133E+00  2.919114990E+02
4.540117555E+00  2.926886597E+02
4.544940977E+00  2.927548218E+02
4.549764399E+00  2.912452698E+02
4.554587821E+00  2.899252319E+02
4.559411243E+00  2.898449097E+02
4.564234666E+00  2.905908508E+02
4.569058088E+00  2.906618042E+02
4.573881510E+00  2.898669739E+02
4.578704932E+00  2.901792297E+02
4.583528354E+00  2.896028442E+02
4.588351776E+00  2.892319031E+02
4.593175199E+00  2.897368164E+02
4.597998621E+00  2.903595581E+02
4.602822043E+00  2.902817383E+02
4.607645465E+00  2.900215149E+02
4.612468887E+00  2.893331299E+02
4.617292309E+00  2.890886536E+02
4.622115731E+00  2.878513794E+02
4.626939154E+00  2.860143127E+02
4.631762576E+00  2.855477600E+02
4.636585998E+00  2.852555847E+02
4.641409420E+00  2.859491882E+02
4.646232842E+00  2.857459717E+02
4.651056264E+00  2.854518433E+02
4.655879687E+00  2.843899536E+02
4.660703109E+00  2.846238098E+02
4.665526531E+00  2.839874268E+02
4.670349953E+00  2.828433228E+02
4.675173375E+00  2.823436584E+02
4.679996797E+00  2.822328186E+02
4.684820220E+00  2.816800232E+02
4.689643642E+00  2.826117554E+02
4.694467064E+00  2.833654480E+02
4.699290486E+00  2.813279114E+02
4.704113908E+00  2.805757751E+02
4.708937330E+00  2.800517273E+02
4.713760753E+00  2.798829346E+02
4.718584175E+00  2.800027161E+02
4.723407597E+00  2.805840759E+02
4.728231019E+00  2.800710754E+02
4.733054441E+00  2.793111877E+02
4.737877863E+00  2.788843689E+02
4.742701286E+00  2.786551208E+02
4.747524708E+00  2.786808472E+02
4.752348130E+00  2.780424500E+02
4.757171552E+00  2.773484802E+02
4.761994974E+00  2.779440918E+02
4.766818396E+00  2.787289429E+02
4.771641818E+00  2.781106567E+02
4.776465241E+00  2.771159363E+02
4.781288663E+00  2.764141541E+02
4.786112085E+00  2.774536438E+02
4.790935507E+00  2.779586792E+02
4.795758929E+00  2.775437622E+02
4.800582351E+00  2.754668274E+02
4.805405774E+00  2.751959229E+02
4.810229196E+00  2.754405518E+02
4.815052618E+00  2.742093811E+02
4.819876040E+00  2.721675110E+02
4.824699462E+00  2.719580078E+02
4.829522884E+00  2.729635315E+02
4.834346307E+00  2.731441040E+02
4.839169729E+00  2.720499573E+02
4.843993151E+00  2.714644470E+02
4.848816573E+00  2.706260376E+02
4.853639995E+00  2.698746033E+02
4.858463417E+00  2.696236572E+02
4.863286840E+00  2.691626892E+02
4.868110262E+00  2.703200378E+02
4.872933684E+00  2.705665588E+02
4.877757106E+00  2.684688110E+02
4.882580528E+00  2.672896729E+02
4.887403950E+00  2.679504395E+02
4.892227373E+00  2.683141479E+02
4.897050795E+00  2.673504944E+02
4.901874217E+00  2.664637756E+02
4.906697639E+00  2.663116150E+02
4.911521061E+00  2.652428589E+02
4.916344483E+00  2.636601562E+02
4.921167905E+00  2.630931091E+02
4.925991328E+00  2.633322144E+02
4.930814750E+00  2.633895569E+02
4.935638172E+00  2.638384399E+02
4.940461594E+00  2.629946899E+02
4.945285016E+00  2.620513306E+02
4.950108438E+00  2.605846558E+02
4.954931861E+00  2.602801208E+02
4.959755283E+00  2.606373901E+02
4.964578705E+00  2.609042664E+02
4.969402127E+00  2.614207153E+02
4.974225549E+00  2.623113403E+02
4.979048971E+00  2.610476685E+02
4.983872394E+00  2.594448547E+02
4.988695816E+00  2.584511719E+02
4.993519238E+00  2.589414368E+02
4.998342660E+00  2.598208313E+02
5.003166082E+00  2.588714600E+02
5.007989504E+00  2.569187622E+02
5.012812927E+00  2.548082581E+02
5.017636349E+00  2.540793762E+02
5.022459771E+00  2.537163391E+02
5.027283193E+00  2.532963104E+02
5.032106615E+00  2.536224365E+02
5.036930037E+00  2.535353088E+02
5.041753459E+00  2.537528839E+02
5.046576882E+00  2.533625946E+02
5.051400304E+00  2.521253967E+02
5.056223726E+00  2.515660706E+02
5.061047148E+00  2.513859406E+02
5.065870570E+00  2.515088501E+02
5.070693992E+00  2.516028900E+02
5.075517415E+00  2.505158234E+02
5.080340837E+00  2.492369537E+02
5.085164259E+00  2.484835663E+02
5.089987681E+00  2.474583130E+02
5.094811103E+00  2.467340240E+02
5.099634525E+00  2.468605499E+02
5.104457948E+00  2.474218750E+02
5.109281370E+00  2.481713409E+02
5.114104792E+00  2.478952789E+02
5.118928214E+00  2.483989563E+02
5.123751636E+00  2.485686035E+02
5.128575058E+00  2.488540802E+02
5.133398481E+00  2.480671997E+02
5.138221903E+00  2.470710907E+02
5.143045325E+00  2.467774506E+02
5.147868747E+00  2.471788483E+02
5.152692169E+00  2.468220062E+02
5.157515591E+00  2.451391296E+02
5.162339014E+00  2.443376007E+02
5.167162436E+00  2.442082825E+02
5.171985858E+00  2.437160492E+02
5.176809280E+00  2.425926361E+02
5.181632702E+00  2.412321930E+02
5.186456124E+00  2.398312531E+02
5.191279546E+00  2.397178345E+02
5.196102969E+00  2.400656586E+02
5.200926391E+00  2.398370667E+02
5.205749813E+00  2.388940887E+02
5.210573235E+00  2.384195862E+02
5.215396657E+00  2.383826904E+02
5.220220079E+00  2.379659119E+02
5.225043502E+00  2.361917419E+02
5.229866924E+00  2.356556549E+02
5.234690346E+00  2.353106995E+02
5.239513768E+00  2.333311768E+02
5.244337190E+00  2.324944000E+02
5.249160612E+00  2.340422668E+02
5.253984035E+00  2.352410126E+02
5.258807457E+00  2.343113098E+02
5.263630879E+00  2.332477570E+02
5.268454301E+00  2.333587189E+02
5.273277723E+00  2.333207092E+02
5.278101145E+00  2.333780212E+02
5.282924568E+00  2.326165771E+02
5.287747990E+00  2.314016266E+02
5.292571412E+00  2.311202545E+02
5.297394834E+00  2.307274780E+02
5.302218256E+00  2.297351990E+02
5.307041678E+00  2.297046204E+02
5.311865101E+00  2.294117126E+02
5.316688523E+00  2.277142029E+02
5.321511945E+00  2.272694092E+02
5.326335367E+00  2.268731232E+02
5.331158789E+00  2.265280609E+02
5.335982211E+00  2.255145416E+02
5.340805633E+00  2.246985168E+02
5.345629056E+00  2.245060120E+02
5.350452478E+00  2.245229340E+02
5.355275900E+00  2.257117004E+02
5.360099322E+00  2.257158966E+02
5.364922744E+00  2.249536285E+02
5.369746166E+00  2.240869904E+02
5.374569589E+00  2.224790955E+02
5.379393011E+00  2.212900238E+02
5.384216433E+00  2.211632233E+02
5.389039855E+00  2.209151764E+02
5.393863277E+00  2.207696075E+02
5.398686699E+00  2.220881042E+02
5.403510122E+00  2.227622833E+02
5.408333544E+00  2.222006226E+02
5.413156966E+00  2.209900055E+02
5.417980388E+00  2.194068604E+02
5.422803810E+00  2.193368683E+02
5.427627232E+00  2.193815155E+02
5.432450655E+00  2.189117279E+02
5.437274077E+00  2.181600952E+02
5.442097499E+00  2.164406738E+02
5.446920921E+00  2.158720093E+02
5.451744343E+00  2.158631439E+02
5.456567765E+00  2.163542480E+02
5.461391188E+00  2.167177124E+02
5.466214610E+00  2.171742554E+02
5.471038032E+00  2.162666626E+02
5.475861454E+00  2.156149292E+02
5.480684876E+00  2.151931305E+02
5.485508298E+00  2.154645996E+02
5.490331720E+00  2.157909851E+02
5.495155143E+00  2.153647461E+02
5.499978565E+00  2.137883606E+02
5.504801987E+00  2.121877289E+02
5.509625409E+00  2.118699493E+02
5.514448831E+00  2.128574524E+02
5.519272253E+00  2.128487244E+02
5.524095676E+00  2.119800415E+02
5.528919098E+00  2.106070251E+02
5.533742520E+00  2.095697174E+02
5.538565942E+00  2.093383331E+02
5.543389364E+00  2.097188263E+02
5.548212786E+00  2.093072357E+02
5.553036209E+00  2.089900360E+02
5.557859631E+00  2.095258026E+02
5.562683053E+00  2.098204193E+02
5.567506475E+00  2.090432129E+02
5.572329897E+00  2.076904297E+02
5.577153319E+00  2.066067810E+02
5.581976742E+00  2.056294556E+02
5.586800164E+00  2.053345795E+02
5.591623586E+00  2.055144653E+02
5.596447008E+00  2.055300598E+02
5.601270430E+00  2.062052460E+02
5.606093852E+00  2.064547424E+02
5.610917275E+00  2.059324341E+02
5.615740697E+00  2.056884613E+02
5.620564119E+00  2.048093567E+02
5.625387541E+00  2.025256653E+02
5.630210963E+00  2.021145477E+02
5.635034385E+00  2.025818481E+02
5.639857807E+00  2.030080414E+02
5.644681230E+00  2.030542297E+02
5.649504652E+00  2.029630432E+02
5.654328074E+00  2.022917328E+02
5.659151496E+00  2.012478638E+02
5.663974918E+00  2.010245972E+02
5.668798340E+00  2.007655487E+02
5.673621763E+00  1.998740082E+02
5.678445185E+00  1.989105988E+02
5.683268607E+00  1.985082092E+02
5.688092029E+00  1.988071899E+02
5.692915451E+00  1.988893433E+02
5.697738873E+00  1.989950256E+02
5.702562296E+00  1.988347473E+02
5.707385718E+00  1.989116516E+02
5.712209140E+00  1.987767487E+02
5.717032562E+00  1.981572266E+02
5.721855984E+00  1.978793488E+02
5.726679406E+00  1.978860626E+02
5.731502829E+00  1.970883331E+02
5.736326251E+00  1.963443451E+02
5.741149673E+00  1.960431976E+02
5.745973095E+00  1.958292542E+02
5.750796517E+00  1.947178345E+02
5.755619939E+00  1.946941223E+02
5.760443361E+00  1.955164795E+02
5.765266784E+00  1.949791718E+02
5.770090206E+00  1.950927887E+02
5.774913628E+00  1.941633759E+02
5.779737050E+00  1.932903137E+02
5.784560472E+00  1.928255920E+02
5.789383894E+00  1.925386047E+02
5.794207317E+00  1.929856873E+02
5.799030739E+00  1.929668884E+02
5.803854161E+00  1.930201111E+02
5.808677583E+00  1.932792816E+02
5.813501005E+00  1.930771790E+02
5.818324427E+00  1.916856384E+02
5.823147850E+00  1.916375427E+02
5.827971272E+00  1.918525543E+02
5.832794694E+00  1.914988403E+02
5.837618116E+00  1.912969055E+02
5.842441538E+00  1.909860992E+02
5.847264960E+00  1.905988922E+02
5.852088383E+00  1.898481140E+02
5.856911805E+00  1.887931366E+02
5.861735227E+00  1.882877960E+02
5.866558649E+00  1.883927917E+02
5.871382071E+00  1.885971832E+02
5.876205493E+00  1.881673737E+02
5.881028916E+00  1.875382385E+02
5.885852338E+00  1.870995636E+02
5.890675760E+00  1.862539520E+02
5.895499182E+00  1.856498718E+02
5.900322604E+00  1.854185181E+02
5.905146026E+00  1.870716553E+02
5.909969448E+00  1.872119598E+02
5.914792871E+00  1.861139374E+02
5.919616293E+00  1.847916718E+02
5.924439715E+00  1.854941254E+02
5.929263137E+00  1.856195068E+02
5.934086559E+00  1.850434570E+02
5.938909981E+00  1.837793884E+02
5.943733404E+00  1.832977448E+02
5.948556826E+00  1.823743896E+02
5.953380248E+00  1.806618347E+02
5.958203670E+00  1.797055054E+02
5.963027092E+00  1.804612732E+02
5.967850514E+00  1.803316498E+02
5.972673937E+00  1.802378845E+02
5.977497359E+00  1.804900360E+02
5.982320781E+00  1.803734741E+02
5.987144203E+00  1.795607147E+02
5.991967625E+00  1.794235840E+02
5.996791047E+00  1.801270142E+02
6.001614470E+00  1.804700928E+02
6.006437892E+00  1.799849701E+02
6.011261314E+00  1.788105316E+02
6.016084736E+00  1.787070312E+02
6.020908158E+00  1.779357758E+02
6.025731580E+00  1.778856354E+02
6.030555003E+00  1.770661469E+02
6.035378425E+00  1.772187958E+02
6.040201847E+00  1.773858948E+02
6.045025269E+00  1.775921783E+02
6.049848691E+00  1.780166779E+02
6.054672113E+00  1.781412506E+02
6.059495535E+00  1.775881042E+02
6.064318958E+00  1.764768066E+02
6.069142380E+00  1.750955811E+02
6.073965802E+00  1.752136841E+02
6.078789224E+00  1.748462677E+02
6.083612646E+00  1.734744263E+02
6.088436068E+00  1.732731628E+02
6.093259491E+00  1.735921783E+02
6.098082913E+00  1.729588013E+02
6.102906335E+00  1.725236664E+02
6.107729757E+00  1.732753601E+02
6.112553179E+00  1.732201538E+02
6.117376601E+00  1.727082062E+02
6.122200024E+00  1.714609070E+02
6.127023446E+00  1.706935577E+02
6.131846868E+00  1.709728546E+02
6.136670290E+00  1.709883270E+02
6.141493712E+00  1.703536224E+02
6.146317134E+00  1.703232117E+02
6.151140557E+00  1.710712891E+02
6.155963979E+00  1.703785248E+02
6.160787401E+00  1.703469543E+02
6.165610823E+00  1.701374512E+02
6.170434245E+00  1.694508820E+02
6.175257667E+00  1.686917572E+02
6.180081090E+00  1.683978882E+02
6.184904512E+00  1.685441742E+02
6.189727934E+00  1.686674957E+02
6.194551356E+00  1.691299438E+02
6.199374778E+00  1.680494995E+02
6.204198200E+00  1.682169952E+02
6.209021622E+00  1.679998932E+02
6.213845045E+00  1.670592957E+02
6.218668467E+00  1.660744934E+02
6.223491889E+00  1.660854187E+02
6.228315311E+00  1.657657318E+02
6.233138733E+00  1.652329102E+02
6.237962155E+00  1.650369720E+02
6.242785578E+00  1.649283905E+02
6.247609000E+00  1.646254425E+02
6.252432422E+00  1.643717957E+02
6.257255844E+00  1.638489685E+02
6.262079266E+00  1.635486145E+02
6.266902688E+00  1.627758789E+02
6.271726111E+00  1.620644684E+02
6.276549533E+00  1.620083923E+02
6.281372955E+00  1.633225555E+02
6.286196377E+00  1.631852417E+02
6.291019799E+00  1.621613312E+02
6.295843221E+00  1.615083771E+02
6.300666644E+00  1.607242279E+02
6.305490066E+00  1.607493439E+02
6.310313488E+00  1.609431000E+02
6.315136910E+00  1.617468262E+02
6.319960332E+00  1.618746948E+02
6.324783754E+00  1.614871063E+02
6.329607177E+00  1.609773560E+02
6.334430599E+00  1.606586304E+02
6.339254021E+00  1.603988647E+02
6.344077443E+00  1.610838013E+02
6.348900865E+00  1.605840149E+02
6.353724287E+00  1.602108002E+02
6.358547709E+00  1.591695251E+02
6.363371132E+00  1.584478760E+02
6.368194554E+00  1.579225159E+02
6.373017976E+00  1.573322906E+02
6.377841398E+00  1.578033905E+02
6.382664820E+00  1.588014069E+02
6.387488242E+00  1.584093933E+02
6.392311665E+00  1.571939545E+02
6.397135087E+00  1.556533966E+02
6.401958509E+00  1.565200958E+02
6.406781931E+00  1.582859039E+02
6.411605353E+00  1.580268707E+02
6.416428775E+00  1.573360596E+02
6.421252198E+00  1.566505585E+02
6.426075620E+00  1.558751678E+02
6.430899042E+00  1.565010681E+02
6.435722464E+00  1.577218933E+02
6.440545886E+00  1.572765808E+02
6.445369308E+00  1.564288330E+02
6.450192731E+00  1.563090973E+02
6.455016153E+00  1.564263763E+02
6.459839575E+00  1.562447968E+02
6.464662997E+00  1.569611969E+02
6.469486419E+00  1.567961121E+02
6.474309841E+00  1.567082825E+02
6.479133264E+00  1.562945404E+02
6.483956686E+00  1.561081543E+02
6.488780108E+00  1.558977356E+02
6.493603530E+00  1.557206573E+02
6.498426952E+00  1.555005951E+02
6.503250374E+00  1.555734406E+02
6.508073796E+00  1.557658691E+02
6.512897219E+00  1.550431824E+02
6.517720641E+00  1.547981720E+02
6.522544063E+00  1.551533356E+02
6.527367485E+00  1.552881775E+02
6.532190907E+00  1.549016571E+02
6.537014329E+00  1.544442596E+02
6.541837752E+00  1.547550201E+02
6.546661174E+00  1.552058868E+02
6.551484596E+00  1.550039520E+02
6.556308018E+00  1.546915436E+02
6.561131440E+00  1.545173035E+02
6.565954862E+00  1.546713257E+02
6.570778285E+00  1.540647278E+02
6.575601707E+00  1.532631378E+02
6.580425129E+00  1.531190186E+02
6.585248551E+00  1.536506958E+02
6.590071973E+00  1.540860901E+02
6.594895395E+00  1.536082458E+02
6.599718818E+00  1.542366333E+02
6.604542240E+00  1.549909973E+02
6.609365662E+00  1.549278107E+02
6.614189084E+00  1.545746155E+02
6.619012506E+00  1.540333405E+02
6.623835928E+00  1.545629730E+02
6.628659350E+00  1.547157288E+02
6.633482773E+00  1.541850128E+02
6.638306195E+00  1.540327606E+02
6.643129617E+00  1.551632843E+02
6.647953039E+00  1.553077240E+02
6.652776461E+00  1.549043121E+02
6.657599883E+00  1.533384705E+02
6.662423306E+00  1.524546204E+02
6.667246728E+00  1.524038391E+02
6.672070150E+00  1.528098907E+02
6.676893572E+00  1.525595856E+02
6.681716994E+00  1.530045166E+02
6.686540416E+00  1.536539307E+02
6.691363839E+00  1.542926941E+02
6.696187261E+00  1.542613831E+02
6.701010683E+00  1.546081390E+02
6.705834105E+00  1.550494232E+02
6.710657527E+00  1.543640137E+02
6.715480949E+00  1.531529846E+02
6.720304372E+00  1.529773407E+02
6.725127794E+00  1.530913391E+02
6.729951216E+00  1.537518005E+02
6.734774638E+00  1.540211639E+02
6.739598060E+00  1.534060516E+02
6.744421482E+00  1.522169495E+02
6.749244905E+00  1.507270203E+02
6.754068327E+00  1.507752380E+02
6.758891749E+00  1.512526550E+02
6.763715171E+00  1.521636200E+02
6.768538593E+00  1.523403168E+02
6.773362015E+00  1.522773285E+02
6.778185437E+00  1.519799347E+02
6.783008860E+00  1.521048889E+02
6.787832282E+00  1.520228882E+02
6.792655704E+00  1.518014069E+02
6.797479126E+00  1.522217407E+02
6.802302548E+00  1.531843109E+02
6.807125970E+00  1.528834839E+02
6.811949393E+00  1.520303497E+02
6.816772815E+00  1.519283447E+02
6.821596237E+00  1.521699371E+02
6.826419659E+00  1.521920929E+02
6.831243081E+00  1.530098267E+02
6.836066503E+00  1.523623810E+02
6.840889926E+00  1.514214325E+02
6.845713348E+00  1.515730896E+02
6.850536770E+00  1.519383698E+02
6.855360192E+00  1.523433838E+02
6.860183614E+00  1.526305695E+02
6.865007036E+00  1.520823364E+02
6.869830459E+00  1.513882446E+02
6.874653881E+00  1.512527466E+02
6.879477303E+00  1.511167145E+02
6.884300725E+00  1.508913727E+02
6.889124147E+00  1.511418762E+02
6.893947569E+00  1.509032745E+02
6.898770992E+00  1.506730804E+02
6.903594414E+00  1.511233215E+02
6.908417836E+00  1.514024353E+02
6.913241258E+00  1.511554260E+02
6.918064680E+00  1.520071259E+02
6.922888102E+00  1.521952515E+02
6.927711524E+00  1.522338715E+02
6.932534947E+00  1.519467773E+02
6.937358369E+00  1.522796783E+02
6.942181791E+00  1.513982239E+02
6.947005213E+00  1.503919678E+02
6.951828635E+00  1.503539734E+02
6.956652057E+00  1.506056976E+02
6.961475480E+00  1.503129883E+02
6.966298902E+00  1.502286224E+02
6.971122324E+00  1.503996124E+02
6.975945746E+00  1.498045959E+02
6.980769168E+00  1.500625610E+02
6.985592590E+00  1.502506256E+02
6.990416013E+00  1.496859589E+02
6.995239435E+00  1.493091431E+02
7.000062857E+00  1.494451294E+02
7.004886279E+00  1.499388580E+02
7.009709701E+00  1.501287842E+02
7.014533123E+00  1.505278778E+02
7.019356546E+00  1.510417938E+02
7.024179968E+00  1.514732208E+02
7.029003390E+00  1.510213623E+02
7.033826812E+00  1.506109467E+02
7.038650234E+00  1.515076141E+02
7.043473656E+00  1.515603485E+02
7.048297079E+00  1.518249817E+02
7.053120501E+00  1.522669983E+02
7.057943923E+00  1.513134308E+02
7.062767345E+00  1.502826843E+02
7.067590767E+00  1.494696960E+02
7.072414189E+00  1.494059296E+02
7.077237611E+00  1.503213806E+02
7.082061034E+00  1.512329865E+02
7.086884456E+00  1.507017212E+02
7.091707878E+00  1.506166077E+02
7.096531300E+00  1.497996063E+02
7.101354722E+00  1.493066101E+02
7.106178144E+00  1.498924561E+02
7.111001567E+00  1.500886536E+02
7.115824989E+00  1.503349152E+02
7.120648411E+00  1.506076965E+02
7.125471833E+00  1.506062317E+02
7.130295255E+00  1.504386292E+02
7.135118677E+00  1.496944733E+02
7.139942100E+00  1.495766754E+02
7.144765522E+00  1.490473480E+02
7.149588944E+00  1.485337830E+02
7.154412366E+00  1.477491455E+02
7.159235788E+00  1.487034454E+02
7.164059210E+00  1.493773499E+02
7.168882633E+00  1.493904572E+02
7.173706055E+00  1.493474579E+02
7.178529477E+00  1.493645630E+02
7.183352899E+00  1.488351288E+02
7.188176321E+00  1.486618652E+02
7.192999743E+00  1.493229370E+02
7.197823166E+00  1.494146576E+02
7.202646588E+00  1.494384155E+02
7.207470010E+00  1.491867371E+02
7.212293432E+00  1.484354858E+02
7.217116854E+00  1.478433838E+02
7.221940276E+00  1.478551788E+02
7.226763698E+00  1.480491486E+02
7.231587121E+00  1.479309235E+02
7.236410543E+00  1.477863312E+02
7.241233965E+00  1.475440063E+02
7.246057387E+00  1.477048035E+02
7.250880809E+00  1.471874542E+02
7.255704231E+00  1.469921875E+02
7.260527654E+00  1.484734039E+02
7.265351076E+00  1.488948975E+02
7.270174498E+00  1.486647949E+02
7.274997920E+00  1.477207336E+02
7.279821342E+00  1.469192810E+02
7.284644764E+00  1.464300385E+02
7.289468187E+00  1.467070465E+02
7.294291609E+00  1.465452576E+02
7.299115031E+00  1.462413483E+02
7.303938453E+00  1.463737183E+02
7.308761875E+00  1.466688690E+02
7.313585297E+00  1.466088409E+02
7.318408720E+00  1.465685272E+02
7.323232142E+00  1.467631226E+02
7.328055564E+00  1.471009216E+02
7.332878986E+00  1.469105377E+02
7.337702408E+00  1.459009552E+02
7.342525830E+00  1.458062744E+02
7.347349253E+00  1.463201599E+02
7.352172675E+00  1.466778717E+02
7.356996097E+00  1.469060211E+02
7.361819519E+00  1.466685028E+02
7.366642941E+00  1.466013489E+02
7.371466363E+00  1.467934723E+02
7.376289785E+00  1.468130951E+02
7.381113208E+00  1.469225922E+02
7.385936630E+00  1.460363312E+02
7.390760052E+00  1.454715424E+02
7.395583474E+00  1.454081421E+02
7.400406896E+00  1.456774292E+02
7.405230318E+00  1.454963989E+02
7.410053741E+00  1.450942230E+02
7.414877163E+00  1.453962708E+02
7.419700585E+00  1.453613129E+02
7.424524007E+00  1.455180359E+02
7.429347429E+00  1.458456268E+02
7.434170851E+00  1.459051361E+02
7.438994274E+00  1.460615387E+02
7.443817696E+00  1.451150818E+02
7.448641118E+00  1.442235870E+02
7.453464540E+00  1.440656128E+02
7.458287962E+00  1.445944824E+02
7.463111384E+00  1.450798492E+02
7.467934807E+00  1.454494171E+02
7.472758229E+00  1.451822510E+02
7.477581651E+00  1.454968109E+02
7.482405073E+00  1.456736145E+02
7.487228495E+00  1.460321655E+02
7.492051917E+00  1.466922607E+02
7.496875339E+00  1.468765869E+02
7.501698762E+00  1.465453949E+02
7.506522184E+00  1.453605957E+02
7.511345606E+00  1.447289734E+02
7.516169028E+00  1.455805359E+02
7.520992450E+00  1.462255096E+02
7.525815872E+00  1.460651398E+02
7.530639295E+00  1.454898071E+02
7.535462717E+00  1.453060913E+02
7.540286139E+00  1.460729980E+02
7.545109561E+00  1.459897003E+02
7.549932983E+00  1.454467316E+02
7.554756405E+00  1.453242950E+02
7.559579828E+00  1.449665527E+02
7.564403250E+00  1.446189728E+02
7.569226672E+00  1.446904449E+02
7.574050094E+00  1.442054138E+02
7.578873516E+00  1.446405487E+02
7.583696938E+00  1.456446686E+02
7.588520361E+00  1.460350494E+02
7.593343783E+00  1.465032806E+02
7.598167205E+00  1.458901672E+02
7.602990627E+00  1.450415802E+02
7.607814049E+00  1.450467834E+02
7.612637471E+00  1.452133179E+02
7.617460894E+00  1.447017670E+02
7.622284316E+00  1.450422363E+02
7.627107738E+00  1.455046234E+02
7.631931160E+00  1.452787933E+02
7.636754582E+00  1.453276062E+02
7.641578004E+00  1.456678314E+02
7.646401426E+00  1.455620728E+02
7.651224849E+00  1.457590179E+02
7.656048271E+00  1.463818817E+02
7.660871693E+00  1.464000092E+02
7.665695115E+00  1.454225006E+02
7.670518537E+00  1.445913391E+02
7.675341959E+00  1.446341553E+02
7.680165382E+00  1.449947662E+02
7.684988804E+00  1.456545563E+02
7.689812226E+00  1.459463043E+02
7.694635648E+00  1.460044403E+02
7.699459070E+00  1.462253418E+02
7.704282492E+00  1.470221252E+02
7.709105915E+00  1.466514435E+02
7.713929337E+00  1.458682556E+02
7.718752759E+00  1.453990479E+02
7.723576181E+00  1.447938995E+02
7.728399603E+00  1.447714233E+02
7.733223025E+00  1.464109039E+02
7.738046448E+00  1.469734344E+02
7.742869870E+00  1.462779541E+02
7.747693292E+00  1.453609619E+02
7.752516714E+00  1.450977936E+02
7.757340136E+00  1.454412689E+02
7.762163558E+00  1.466265106E+02
7.766986981E+00  1.466714935E+02
7.771810403E+00  1.448980713E+02
7.776633825E+00  1.440686493E+02
7.781457247E+00  1.446134796E+02
7.786280669E+00  1.450692596E+02
7.791104091E+00  1.454450836E+02
7.795927513E+00  1.453578186E+02
7.800750936E+00  1.449746552E+02
7.805574358E+00  1.442607880E+02
7.810397780E+00  1.445173645E+02
7.815221202E+00  1.450882111E+02
7.820044624E+00  1.452472229E+02
7.824868046E+00  1.451869812E+02
7.829691469E+00  1.442286835E+02
7.834514891E+00  1.432020569E+02
7.839338313E+00  1.423375702E+02
7.844161735E+00  1.424585571E+02
7.848985157E+00  1.437222595E+02
7.853808579E+00  1.449498596E+02
7.858632002E+00  1.450293884E+02
7.863455424E+00  1.452623596E+02
7.868278846E+00  1.452890167E+02
7.873102268E+00  1.456459808E+02
7.877925690E+00  1.455578918E+02
7.882749112E+00  1.447257538E+02
7.887572535E+00  1.445773621E+02
7.892395957E+00  1.443509521E+02
7.897219379E+00  1.432410126E+02
7.902042801E+00  1.422937927E+02
7.906866223E+00  1.425809479E+02
7.911689645E+00  1.434557037E+02
7.916513068E+00  1.445727386E+02
7.921336490E+00  1.441455231E+02
7.926159912E+00  1.439709930E+02
7.930983334E+00  1.443953705E+02
7.935806756E+00  1.439447479E+02
7.940630178E+00  1.438318939E+02
7.945453600E+00  1.433087463E+02
7.950277023E+00  1.437410278E+02
7.955100445E+00  1.454033051E+02
7.959923867E+00  1.457445831E+02
7.964747289E+00  1.447441101E+02
7.969570711E+00  1.441135254E+02
7.974394133E+00  1.442841034E+02
7.979217556E+00  1.439935760E+02
7.984040978E+00  1.436917114E+02
7.988864400E+00  1.441070709E+02
7.993687822E+00  1.442401276E+02
7.998511244E+00  1.455315247E+02
8.003334666E+00  1.457936859E+02
8.008158089E+00  1.447690430E+02
8.012981511E+00  1.441723785E+02
8.017804933E+00  1.445786591E+02
8.022628355E+00  1.440559540E+02
8.027451777E+00  1.438926849E+02
8.032275199E+00  1.450304565E+02
8.037098622E+00  1.455545502E+02
8.041922044E+00  1.446637268E+02
8.046745466E+00  1.445538940E+02
8.051568888E+00  1.450223083E+02
8.056392310E+00  1.449233551E+02
8.061215732E+00  1.446443481E+02
8.066039155E+00  1.444920654E+02
8.070862577E+00  1.447398682E+02
8.075685999E+00  1.441602173E+02
8.080509421E+00  1.434874115E+02
8.085332843E+00  1.437328949E+02
8.090156265E+00  1.439402771E+02
8.094979687E+00  1.443860168E+02
8.099803110E+00  1.443459320E+02
8.104626532E+00  1.439404144E+02
8.109449954E+00  1.442452850E+02
8.114273376E+00  1.453492584E+02
8.119096798E+00  1.455357971E+02
8.123920220E+00  1.449999237E+02
8.128743643E+00  1.450153198E+02
8.133567065E+00  1.455273132E+02
8.138390487E+00  1.447266235E+02
8.143213909E+00  1.432547302E+02
8.148037331E+00  1.423686523E+02
8.152860753E+00  1.428661194E+02
8.157684176E+00  1.445637207E+02
8.162507598E+00  1.451389313E+02
8.167331020E+00  1.442991791E+02
8.172154442E+00  1.437565002E+02
8.176977864E+00  1.444822235E+02
8.181801286E+00  1.453047333E+02
8.186624709E+00  1.447087250E+02
8.191448131E+00  1.440908203E+02
8.196271553E+00  1.444125671E+02
8.201094975E+00  1.447796478E+02
8.205918397E+00  1.445758057E+02
8.210741819E+00  1.447731018E+02
8.215565242E+00  1.447350006E+02
8.220388664E+00  1.451510773E+02
8.225212086E+00  1.455763245E+02
8.230035508E+00  1.460639648E+02
8.234858930E+00  1.455872498E+02
8.239682352E+00  1.451878357E+02
8.244505774E+00  1.453604279E+02
8.249329197E+00  1.448847961E+02
8.254152619E+00  1.447076111E+02
8.258976041E+00  1.443685760E+02
8.263799463E+00  1.445619507E+02
8.268622885E+00  1.448992157E+02
8.273446307E+00  1.456446991E+02
8.278269730E+00  1.459720917E+02
8.283093152E+00  1.459435425E+02
8.287916574E+00  1.463344574E+02
8.292739996E+00  1.453538971E+02
8.297563418E+00  1.453480988E+02
8.302386840E+00  1.457871399E+02
8.307210263E+00  1.455309143E+02
8.312033685E+00  1.450170746E+02
8.316857107E+00  1.443156128E+02
8.321680529E+00  1.446813812E+02
8.326503951E+00  1.453511658E+02
8.331327373E+00  1.455514984E+02
8.336150796E+00  1.456314850E+02
8.340974218E+00  1.452194519E+02
8.345797640E+00  1.451458282E+02
8.350621062E+00  1.455462952E+02
8.355444484E+00  1.458644562E+02
8.360267906E+00  1.461600952E+02
8.365091328E+00  1.467183228E+02
8.369914751E+00  1.469714966E+02
8.374738173E+00  1.475405731E+02
8.379561595E+00  1.476711273E+02
8.384385017E+00  1.471985474E+02
8.389208439E+00  1.475059967E+02
8.394031861E+00  1.479100189E+02
8.398855284E+00  1.472601166E+02
8.403678706E+00  1.471145935E+02
8.408502128E+00  1.460544891E+02
8.413325550E+00  1.464149780E+02
8.418148972E+00  1.459248505E+02
8.422972394E+00  1.462954102E+02
8.427795817E+00  1.467681580E+02
8.432619239E+00  1.470990601E+02
8.437442661E+00  1.475548706E+02
8.442266083E+00  1.484621887E+02
8.447089505E+00  1.488618317E+02
8.451912927E+00  1.485158081E+02
8.456736350E+00  1.487246857E+02
8.461559772E+00  1.485713806E+02
8.466383194E+00  1.478564148E+02
8.471206616E+00  1.475748291E+02
8.476030038E+00  1.477065125E+02
8.480853460E+00  1.476426849E+02
8.485676883E+00  1.477647400E+02
8.490500305E+00  1.480029449E+02
8.495323727E+00  1.488424988E+02
8.500147149E+00  1.492548218E+02
8.504970571E+00  1.489440460E+02
8.509793993E+00  1.486804962E+02
8.514617415E+00  1.481719513E+02
8.519440838E+00  1.482683411E+02
8.524264260E+00  1.489501038E+02
8.529087682E+00  1.489187012E+02
8.533911104E+00  1.473248291E+02
8.538734526E+00  1.470420227E+02
8.543557948E+00  1.476526794E+02
8.548381371E+00  1.480109863E+02
8.553204793E+00  1.485982056E+02
8.558028215E+00  1.492381592E+02
8.562851637E+00  1.494097595E+02
8.567675059E+00  1.497071838E+02
8.572498481E+00  1.490331268E+02
8.577321904E+00  1.486956024E+02
8.582145326E+00  1.498865814E+02
8.586968748E+00  1.501861877E+02
8.591792170E+00  1.503717804E+02
8.596615592E+00  1.503365631E+02
8.601439014E+00  1.497480011E+02
8.606262437E+00  1.493583374E+02
8.611085859E+00  1.492298126E+02
8.615909281E+00  1.490580750E+02
8.620732703E+00  1.489930420E+02
8.625556125E+00  1.497698364E+02
8.630379547E+00  1.498924255E+02
8.635202970E+00  1.492837372E+02
8.640026392E+00  1.490627747E+02
8.644849814E+00  1.488878021E+02
8.649673236E+00  1.493235779E+02
8.654496658E+00  1.501018066E+02
8.659320080E+00  1.500124817E+02
8.664143502E+00  1.493228149E+02
8.668966925E+00  1.497725067E+02
8.673790347E+00  1.500382233E+02
8.678613769E+00  1.501694031E+02
8.683437191E+00  1.505911255E+02
8.688260613E+00  1.501772919E+02
8.693084035E+00  1.500296783E+02
8.697907458E+00  1.503156128E+02
8.702730880E+00  1.502261963E+02
8.707554302E+00  1.500738831E+02
8.712377724E+00  1.495731812E+02
8.717201146E+00  1.492858734E+02
8.722024568E+00  1.490271149E+02
8.726847991E+00  1.495252686E+02
8.731671413E+00  1.501794128E+02
8.736494835E+00  1.499527435E+02
8.741318257E+00  1.506294403E+02
8.746141679E+00  1.507643738E+02
8.750965101E+00  1.507434082E+02
8.755788524E+00  1.508724518E+02
8.760611946E+00  1.510591278E+02
8.765435368E+00  1.508173370E+02
8.770258790E+00  1.512067871E+02
8.775082212E+00  1.507607269E+02
8.779905634E+00  1.498138580E+02
8.784729057E+00  1.500841217E+02
8.789552479E+00  1.504165344E+02
8.794375901E+00  1.495431366E+02
8.799199323E+00  1.498121185E+02
8.804022745E+00  1.497849121E+02
8.808846167E+00  1.501253357E+02
8.813669589E+00  1.508345032E+02
8.818493012E+00  1.509291992E+02
8.823316434E+00  1.512290955E+02
8.828139856E+00  1.511703033E+02
8.832963278E+00  1.520255737E+02
8.837786700E+00  1.520941925E+02
8.842610122E+00  1.518774109E+02
8.847433545E+00  1.521204224E+02
8.852256967E+00  1.526369476E+02
8.857080389E+00  1.513648071E+02
8.861903811E+00  1.498842926E+02
8.866727233E+00  1.505302124E+02
8.871550655E+00  1.521603546E+02
8.876374078E+00  1.534828033E+02
8.881197500E+00  1.538518524E+02
8.886020922E+00  1.542615814E+02
8.890844344E+00  1.539247742E+02
8.895667766E+00  1.535179596E+02
8.900491188E+00  1.527178802E+02
8.905314611E+00  1.528536072E+02
8.910138033E+00  1.538031311E+02
8.914961455E+00  1.545535126E+02
8.919784877E+00  1.543061218E+02
8.924608299E+00  1.537391357E+02
8.929431721E+00  1.537539520E+02
8.934255144E+00  1.537683258E+02
8.939078566E+00  1.537342987E+02
8.943901988E+00  1.538722687E+02
8.948725410E+00  1.535984802E+02
8.953548832E+00  1.542320099E+02
8.958372254E+00  1.537011108E+02
8.963195676E+00  1.537965546E+02
8.968019099E+00  1.539554596E+02
8.972842521E+00  1.543207855E+02
8.977665943E+00  1.550346680E+02
8.982489365E+00  1.545920868E+02
8.987312787E+00  1.548357086E+02
8.992136209E+00  1.555252228E+02
8.996959632E+00  1.554722443E+02
9.001783054E+00  1.555968170E+02
9.006606476E+00  1.559843750E+02
9.011429898E+00  1.556183319E+02
9.016253320E+00  1.554240417E+02
9.021076742E+00  1.555062408E+02
9.025900165E+00  1.553356628E+02
9.030723587E+00  1.545634918E+02
9.035547009E+00  1.546288910E+02
9.040370431E+00  1.546172333E+02
9.045193853E+00  1.559040070E+02
9.050017275E+00  1.562230988E+02
9.054840698E+00  1.565454254E+02
9.059664120E+00  1.555029755E+02
9.064487542E+00  1.558224030E+02
9.069310964E+00  1.562555389E+02
9.074134386E+00  1.564714661E+02
9.078957808E+00  1.567196350E+02
9.083781230E+00  1.568311005E+02
9.088604653E+00  1.574144287E+02
9.093428075E+00  1.582150726E+02
9.098251497E+00  1.577021484E+02
9.103074919E+00  1.568865204E+02
9.107898341E+00  1.568244781E+02
9.112721763E+00  1.572634888E+02
9.117545186E+00  1.577038879E+02
9.122368608E+00  1.578347626E+02
9.127192030E+00  1.570202332E+02
9.132015452E+00  1.561307983E+02
9.136838874E+00  1.573119507E+02
9.141662296E+00  1.572777405E+02
9.146485719E+00  1.572744293E+02
9.151309141E+00  1.586879120E+02
9.156132563E+00  1.587138062E+02
9.160955985E+00  1.580654602E+02
9.165779407E+00  1.576652679E+02
9.170602829E+00  1.567949371E+02
9.175426252E+00  1.581536560E+02
9.180249674E+00  1.583466034E+02
9.185073096E+00  1.585258026E+02
9.189896518E+00  1.580450897E+02
9.194719940E+00  1.581209869E+02
9.199543362E+00  1.581029663E+02
9.204366785E+00  1.576884460E+02
9.209190207E+00  1.579819489E+02
9.214013629E+00  1.584849243E+02
9.218837051E+00  1.591432343E+02
9.223660473E+00  1.592040253E+02
9.228483895E+00  1.590767365E+02
9.233307317E+00  1.585626831E+02
9.238130740E+00  1.578911743E+02
9.242954162E+00  1.576896667E+02
9.247777584E+00  1.581372833E+02
9.252601006E+00  1.586930695E+02
9.257424428E+00  1.587227783E+02
9.262247850E+00  1.588297272E+02
9.267071273E+00  1.586442413E+02
9.271894695E+00  1.580633545E+02
9.276718117E+00  1.589696655E+02
9.281541539E+00  1.601518402E+02
9.286364961E+00  1.600394440E+02
9.291188383E+00  1.597095032E+02
9.296011806E+00  1.601002808E+02
9.300835228E+00  1.607027435E+02
9.305658650E+00  1.606240082E+02
9.310482072E+00  1.597185669E+02
9.315305494E+00  1.586245117E+02
9.320128916E+00  1.592172852E+02
9.324952339E+00  1.595565948E+02
9.329775761E+00  1.594011536E+02
9.334599183E+00  1.596576080E+02
9.339422605E+00  1.608681183E+02
9.344246027E+00  1.606594849E+02
9.349069449E+00  1.597961121E+02
9.353892872E+00  1.586107941E+02
9.358716294E+00  1.584555359E+02
9.363539716E+00  1.591589966E+02
9.368363138E+00  1.598905334E+02
9.373186560E+00  1.599304657E+02
9.378009982E+00  1.599200897E+02
9.382833404E+00  1.596126099E+02
9.387656827E+00  1.606450653E+02
9.392480249E+00  1.606941833E+02
9.397303671E+00  1.600759430E+02
9.402127093E+00  1.601254272E+02
9.406950515E+00  1.602166595E+02
9.411773937E+00  1.599161377E+02
9.416597360E+00  1.592187653E+02
9.421420782E+00  1.599794617E+02
9.426244204E+00  1.604022064E+02
9.431067626E+00  1.603488464E+02
9.435891048E+00  1.598737640E+02
9.440714470E+00  1.601752625E+02
9.445537893E+00  1.605234833E+02
9.450361315E+00  1.604801788E+02
9.455184737E+00  1.612278290E+02
9.460008159E+00  1.599644012E+02
9.464831581E+00  1.600261841E+02
9.469655003E+00  1.594216003E+02
9.474478426E+00  1.601031189E+02
9.479301848E+00  1.613309784E+02
9.484125270E+00  1.610466156E+02
9.488948692E+00  1.606315002E+02
9.493772114E+00  1.605538177E+02
9.498595536E+00  1.610795441E+02
9.503418959E+00  1.607542572E+02
9.508242381E+00  1.610826111E+02
9.513065803E+00  1.606527100E+02
9.517889225E+00  1.616974182E+02
9.522712647E+00  1.627448120E+02
9.527536069E+00  1.625890198E+02
9.532359491E+00  1.626513062E+02
9.537182914E+00  1.627519226E+02
9.542006336E+00  1.626517639E+02
9.546829758E+00  1.620829620E+02
9.551653180E+00  1.610941925E+02
9.556476602E+00  1.601457977E+02
9.561300024E+00  1.612028198E+02
9.566123447E+00  1.620475464E+02
9.570946869E+00  1.615738220E+02
9.575770291E+00  1.609579315E+02
9.580593713E+00  1.610217438E+02
9.585417135E+00  1.616333923E+02
9.590240557E+00  1.619586792E+02
9.595063980E+00  1.623572235E+02
9.599887402E+00  1.622020569E+02
9.604710824E+00  1.611558533E+02
9.609534246E+00  1.608656769E+02
9.614357668E+00  1.625802460E+02
9.619181090E+00  1.618905182E+02
9.624004513E+00  1.612184143E+02
9.628827935E+00  1.619044342E+02
9.633651357E+00  1.620530853E+02
9.638474779E+00  1.616470337E+02
9.643298201E+00  1.618954163E+02
9.648121623E+00  1.628712463E+02
9.652945046E+00  1.629640045E+02
9.657768468E+00  1.627568054E+02
9.662591890E+00  1.619431305E+02
9.667415312E+00  1.619351349E+02
9.672238734E+00  1.616021423E+02
9.677062156E+00  1.619320068E+02
9.681885578E+00  1.617644348E+02
9.686709001E+00  1.615343323E+02
9.691532423E+00  1.615680084E+02
9.696355845E+00  1.615298004E+02
9.701179267E+00  1.618894196E+02
9.706002689E+00  1.627189178E+02
9.710826111E+00  1.630080566E+02
9.715649534E+00  1.639262085E+02
9.720472956E+00  1.639621277E+02
9.725296378E+00  1.640754089E+02
9.730119800E+00  1.638612976E+02
9.734943222E+00  1.643161621E+02
9.739766644E+00  1.642463531E+02
9.744590067E+00  1.638255310E+02
9.749413489E+00  1.635151062E+02
9.754236911E+00  1.636802979E+02
9.759060333E+00  1.640794983E+02
9.763883755E+00  1.638451843E+02
9.768707177E+00  1.648783112E+02
9.773530600E+00  1.653685455E+02
9.778354022E+00  1.650153198E+02
9.783177444E+00  1.652015839E+02
9.788000866E+00  1.647853241E+02
9.792824288E+00  1.642957764E+02
9.797647710E+00  1.643517303E+02
9.802471133E+00  1.634325867E+02
9.807294555E+00  1.638300934E+02
9.812117977E+00  1.639352875E+02
9.816941399E+00  1.636741791E+02
9.821764821E+00  1.636586456E+02
9.826588243E+00  1.638042908E+02
9.831411665E+00  1.646789093E+02
9.836235088E+00  1.649239807E+02
9.841058510E+00  1.644091949E+02
9.845881932E+00  1.637163239E+02
9.850705354E+00  1.639413147E+02
9.855528776E+00  1.642145233E+02
9.860352198E+00  1.658283844E+02
9.865175621E+00  1.664554596E+02
9.869999043E+00  1.660186768E+02
9.874822465E+00  1.663903351E+02
9.879645887E+00  1.667040863E+02
9.884469309E+00  1.665264740E+02
9.889292731E+00  1.659668884E+02
9.894116154E+00  1.651603546E+02
9.898939576E+00  1.653062592E+02
9.903762998E+00  1.655394897E+02
9.908586420E+00  1.652998352E+02
9.913409842E+00  1.655614166E+02
9.918233264E+00  1.659102631E+02
9.923056687E+00  1.658656158E+02
9.927880109E+00  1.665325012E+02
9.932703531E+00  1.664187469E+02
9.937526953E+00  1.660263672E+02
9.942350375E+00  1.661840057E+02
9.947173797E+00  1.668558350E+02
9.951997219E+00  1.680040283E+02
9.956820642E+00  1.683081665E+02
9.961644064E+00  1.669434662E+02
9.966467486E+00  1.670657043E+02
9.971290908E+00  1.675340729E+02
9.976114330E+00  1.668213348E+02
9.980937752E+00  1.669161835E+02
9.985761175E+00  1.675363617E+02
9.990584597E+00  1.672382660E+02
9.995408019E+00  1.671784058E+02
1.000023144E+01  1.673925476E+02
1.000505486E+01  1.666230316E+02
1.000987829E+01  1.665008087E+02
1.001470171E+01  1.668338928E+02
1.001952513E+01  1.671994934E+02
1.002434855E+01  1.672244415E+02
1.002917197E+01  1.671904755E+02
1.003399540E+01  1.672636871E+02
1.003881882E+01  1.670329742E+02
1.004364224E+01  1.668805542E+02
1.004846566E+01  1.672076569E+02
1.005328908E+01  1.686096649E+02
1.005811251E+01  1.686193390E+02
1.006293593E+01  1.680033417E+02
1.006775935E+01  1.682238464E+02
1.007258277E+01  1.682826996E+02
1.007740620E+01  1.683553925E+02
1.008222962E+01  1.689866638E+02
1.008705304E+01  1.700659180E+02
1.009187646E+01  1.701016998E+02
1.009669988E+01  1.695730438E+02
1.010152331E+01  1.688135376E+02
1.010634673E+01  1.689040375E+02
1.011117015E+01  1.690082855E+02
1.011599357E+01  1.685183411E+02
1.012081700E+01  1.697244110E+02
1.012564042E+01  1.697603302E+02
1.013046384E+01  1.697864380E+02
1.013528726E+01  1.710951233E+02
1.014011068E+01  1.704123688E+02
1.014493411E+01  1.701184998E+02
1.014975753E+01  1.696721954E+02
1.015458095E+01  1.692014923E+02
1.015940437E+01  1.692162018E+02
1.016422779E+01  1.706517181E+02
1.016905122E+01  1.717365417E+02
1.017387464E+01  1.719638062E+02
1.017869806E+01  1.713500519E+02
1.018352148E+01  1.706626282E+02
1.018834491E+01  1.708382416E+02
1.019316833E+01  1.711725769E+02
1.019799175E+01  1.712328339E+02
1.020281517E+01  1.726390991E+02
1.020763859E+01  1.723658600E+02
1.021246202E+01  1.711728516E+02
1.021728544E+01  1.710504608E+02
1.022210886E+01  1.706507111E+02
1.022693228E+01  1.703828430E+02
1.023175570E+01  1.702347870E+02
1.023657913E+01  1.707641602E+02
1.024140255E+01  1.706658020E+02
1.024622597E+01  1.701524353E+02
1.025104939E+01  1.705693207E+02
1.025587282E+01  1.708035278E+02
1.026069624E+01  1.707736053E+02
1.026551966E+01  1.715397034E+02
1.027034308E+01  1.720477295E+02
1.027516650E+01  1.719518433E+02
1.027998993E+01  1.713424530E+02
1.028481335E+01  1.703755188E+02
1.028963677E+01  1.688765411E+02
1.029446019E+01  1.688792114E+02
1.029928362E+01  1.693079834E+02
1.030410704E+01  1.701179504E+02
1.030893046E+01  1.704574738E+02
1.031375388E+01  1.712360992E+02
1.031857730E+01  1.712051544E+02
1.032340073E+01  1.707623444E+02
1.032822415E+01  1.700998993E+02
1.033304757E+01  1.705633698E+02
1.033787099E+01  1.707028503E+02
1.034269441E+01  1.705200043E+02
1.034751784E+01  1.700199432E+02
1.035234126E+01  1.692707672E+02
1.035716468E+01  1.701737061E+02
1.036198810E+01  1.703939056E+02
1.036681153E+01  1.706604462E+02
1.037163495E+01  1.710977173E+02
1.037645837E+01  1.704158325E+02
1.038128179E+01  1.700271149E+02
1.038610521E+01  1.696880798E+02
1.039092864E+01  1.697176361E+02
1.039575206E+01  1.704684143E+02
1.040057548E+01  1.711617126E+02
1.040539890E+01  1.714771881E+02
1.041022232E+01  1.705188446E+02
1.041504575E+01  1.707013702E+02
1.041986917E+01  1.709905090E+02
1.042469259E+01  1.717047272E+02
1.042951601E+01  1.715054626E+02
1.043433944E+01  1.705228577E+02
1.043916286E+01  1.702211761E+02
1.044398628E+01  1.707747803E+02
1.044880970E+01  1.710011597E+02
1.045363312E+01  1.714696960E+02
1.045845655E+01  1.716403503E+02
1.046327997E+01  1.707498322E+02
1.046810339E+01  1.708676453E+02
1.047292681E+01  1.711738129E+02
1.047775024E+01  1.714409485E+02
1.048257366E+01  1.717308502E+02
1.048739708E+01  1.708351898E+02
1.049222050E+01  1.707401428E+02
1.049704392E+01  1.705702515E+02
1.050186735E+01  1.708603058E+02
1.050669077E+01  1.717722778E+02
1.051151419E+01  1.714211426E+02
1.051633761E+01  1.707545624E+02
1.052116103E+01  1.705004272E+02
1.052598446E+01  1.712953644E+02
1.053080788E+01  1.710528107E+02
1.053563130E+01  1.710796661E+02
1.054045472E+01  1.720367584E+02
1.054527815E+01  1.732074738E+02
1.055010157E+01  1.720899658E+02
1.055492499E+01  1.709767456E+02
1.055974841E+01  1.721403046E+02
1.056457183E+01  1.729869537E+02
1.056939526E+01  1.733148041E+02
1.057421868E+01  1.732075500E+02
1.057904210E+01  1.736501312E+02
1.058386552E+01  1.737620544E+02
1.058868894E+01  1.742122803E+02
1.059351237E+01  1.741222534E+02
1.059833579E+01  1.737731323E+02
1.060315921E+01  1.730088501E+02
1.060798263E+01  1.734745178E+02
1.061280606E+01  1.738721008E+02
1.061762948E+01  1.733350525E+02
1.062245290E+01  1.724887848E+02
1.062727632E+01  1.726709442E+02
1.063209974E+01  1.734575958E+02
1.063692317E+01  1.733076935E+02
1.064174659E+01  1.729886780E+02
1.064657001E+01  1.728127136E+02
1.065139343E+01  1.735589752E+02
1.065621686E+01  1.738063049E+02
1.066104028E+01  1.730236664E+02
1.066586370E+01  1.730318756E+02
1.067068712E+01  1.737468414E+02
1.067551054E+01  1.744665375E+02
1.068033397E+01  1.751611786E+02
1.068515739E+01  1.737788086E+02
1.068998081E+01  1.728307800E+02
1.069480423E+01  1.740491791E+02
1.069962765E+01  1.746103668E+02
1.070445108E+01  1.745373688E+02
1.070927450E+01  1.748198853E+02
1.071409792E+01  1.750226288E+02
1.071892134E+01  1.755833282E+02
1.072374477E+01  1.760056000E+02
1.072856819E+01  1.759438019E+02
1.073339161E+01  1.762256470E+02
1.073821503E+01  1.767624207E+02
1.074303845E+01  1.760343170E+02
1.074786188E+01  1.766399384E+02
1.075268530E+01  1.775119324E+02
1.075750872E+01  1.770872650E+02
1.076233214E+01  1.770360718E+02
1.076715556E+01  1.761343231E+02
1.077197899E+01  1.756317596E+02
1.077680241E+01  1.757711639E+02
1.078162583E+01  1.759254608E+02
1.078644925E+01  1.764916229E+02
1.079127268E+01  1.766695404E+02
1.079609610E+01  1.763229828E+02
1.080091952E+01  1.769580688E+02
1.080574294E+01  1.774994202E+02
1.081056636E+01  1.770084381E+02
1.081538979E+01  1.769617615E+02
1.082021321E+01  1.753529663E+02
1.082503663E+01  1.743861389E+02
1.082986005E+01  1.748495789E+02
1.083468347E+01  1.748074036E+02
1.083950690E+01  1.750258636E+02
1.084433032E+01  1.746881104E+02
1.084915374E+01  1.749722443E+02
1.085397716E+01  1.746264801E+02
1.085880059E+01  1.737866821E+02
1.086362401E+01  1.741841431E+02
1.086844743E+01  1.744951019E+02
1.087327085E+01  1.749691467E+02
1.087809427E+01  1.751553192E+02
1.088291770E+01  1.744109497E+02
1.088774112E+01  1.745689850E+02
1.089256454E+01  1.739054718E+02
1.089738796E+01  1.719765625E+02
1.090221139E+01  1.712589874E+02
1.090703481E+01  1.707467804E+02
1.091185823E+01  1.715123749E+02
1.091668165E+01  1.716802063E+02
1.092150507E+01  1.704720764E+02
1.092632850E+01  1.692660828E+02
1.093115192E+01  1.682147522E+02
1.093597534E+01  1.661890869E+02
1.094079876E+01  1.604504852E+02
1.094562218E+01  1.534959717E+02
1.095044561E+01  1.508816833E+02
1.095526903E+01  1.439112854E+02
1.096009245E+01  8.662454224E+01
