# == pyFAI calibration ==
# SplineFile: None
# PixelSize: 7.900e-05, 7.900e-05 m
# PONI: 8.147e-02, 1.521e-01 m
# Distance Sample to Detector: 0.245492634507 m
# Rotations: 0.007172 -0.004022 -0.000000 rad
# 
# == Fit2d calibration ==
# Distance Sample-beamCenter: 245.501 mm
# Center: x=1903.102, y=1018.721 pix
# Tilt: 0.471 deg  TiltPlanRot: -150.715 deg
# 
# Wavelength: 3.1e-11
# Polarization factor: None
# Normalization factor: None
#
# q_A^-1	 I
5.897348048E-01  8.751098633E+01
5.945582270E-01  9.125249481E+01
5.993816491E-01  9.581655884E+01
6.042050713E-01  9.968042755E+01
6.090284934E-01  1.018995667E+02
6.138519156E-01  1.025662613E+02
6.186753378E-01  1.017016830E+02
6.234987599E-01  1.017699585E+02
6.283221821E-01  1.028510437E+02
6.331456042E-01  1.038144302E+02
6.379690264E-01  1.040287399E+02
6.427924486E-01  1.036007233E+02
6.476158707E-01  1.048782196E+02
6.524392929E-01  1.055420227E+02
6.572627151E-01  1.053487320E+02
6.620861372E-01  1.050366974E+02
6.669095594E-01  1.056106644E+02
6.717329815E-01  1.077500763E+02
6.765564037E-01  1.099074326E+02
6.813798259E-01  1.100300293E+02
6.862032480E-01  1.102543869E+02
6.910266702E-01  1.111848907E+02
6.958500923E-01  1.120344009E+02
7.006735145E-01  1.118244858E+02
7.054969367E-01  1.121730347E+02
7.103203588E-01  1.124484787E+02
7.151437810E-01  1.132775192E+02
7.199672031E-01  1.139993973E+02
7.247906253E-01  1.145779724E+02
7.296140475E-01  1.156424713E+02
7.344374696E-01  1.165836639E+02
7.392608918E-01  1.160324631E+02
7.440843140E-01  1.149944839E+02
7.489077361E-01  1.149629745E+02
7.537311583E-01  1.148941422E+02
7.585545804E-01  1.154279709E+02
7.633780026E-01  1.161680374E+02
7.682014248E-01  1.168846817E+02
7.730248469E-01  1.160964127E+02
7.778482691E-01  1.159567413E+02
7.826716912E-01  1.176819534E+02
7.874951134E-01  1.187242737E+02
7.923185356E-01  1.184257355E+02
7.971419577E-01  1.193322449E+02
8.019653799E-01  1.196592789E+02
8.067888020E-01  1.196912079E+02
8.116122242E-01  1.205470581E+02
8.164356464E-01  1.219468536E+02
8.212590685E-01  1.220343704E+02
8.260824907E-01  1.227523575E+02
8.309059129E-01  1.238708496E+02
8.357293350E-01  1.249452515E+02
8.405527572E-01  1.259904861E+02
8.453761793E-01  1.265934296E+02
8.501996015E-01  1.262507553E+02
8.550230237E-01  1.256353149E+02
8.598464458E-01  1.254906540E+02
8.646698680E-01  1.258508759E+02
8.694932901E-01  1.268844223E+02
8.743167123E-01  1.279548569E+02
8.791401345E-01  1.287654572E+02
8.839635566E-01  1.296771545E+02
8.887869788E-01  1.304085083E+02
8.936104009E-01  1.314831085E+02
8.984338231E-01  1.327272797E+02
9.032572453E-01  1.337396240E+02
9.080806674E-01  1.328847656E+02
9.129040896E-01  1.323430023E+02
9.177275118E-01  1.331519165E+02
9.225509339E-01  1.338274231E+02
9.273743561E-01  1.333098602E+02
9.321977782E-01  1.334598236E+02
9.370212004E-01  1.339299927E+02
9.418446226E-01  1.346255188E+02
9.466680447E-01  1.361768646E+02
9.514914669E-01  1.377364349E+02
9.563148890E-01  1.391375427E+02
9.611383112E-01  1.400220642E+02
9.659617334E-01  1.392502747E+02
9.707851555E-01  1.387906647E+02
9.756085777E-01  1.400465546E+02
9.804319998E-01  1.417104645E+02
9.852554220E-01  1.434425507E+02
9.900788442E-01  1.449321594E+02
9.949022663E-01  1.463134155E+02
9.997256885E-01  1.473196259E+02
1.004549111E+00  1.479984283E+02
1.009372533E+00  1.483065338E+02
1.014195955E+00  1.487618561E+02
1.019019377E+00  1.503029938E+02
1.023842799E+00  1.524742584E+02
1.028666221E+00  1.543747864E+02
1.033489644E+00  1.548966522E+02
1.038313066E+00  1.565274658E+02
1.043136488E+00  1.585709381E+02
1.047959910E+00  1.614939575E+02
1.052783332E+00  1.634348297E+02
1.057606754E+00  1.636358795E+02
1.062430177E+00  1.634930573E+02
1.067253599E+00  1.640361786E+02
1.072077021E+00  1.648322754E+02
1.076900443E+00  1.675964508E+02
1.081723865E+00  1.698850250E+02
1.086547287E+00  1.703520813E+02
1.091370710E+00  1.710237732E+02
1.096194132E+00  1.725798492E+02
1.101017554E+00  1.745337830E+02
1.105840976E+00  1.768542786E+02
1.110664398E+00  1.780196533E+02
1.115487820E+00  1.794808960E+02
1.120311243E+00  1.808118286E+02
1.125134665E+00  1.814385681E+02
1.129958087E+00  1.831921082E+02
1.134781509E+00  1.848237152E+02
1.139604931E+00  1.877062531E+02
1.144428353E+00  1.898074036E+02
1.149251775E+00  1.904167328E+02
1.154075198E+00  1.918420105E+02
1.158898620E+00  1.935303650E+02
1.163722042E+00  1.944601135E+02
1.168545464E+00  1.953312836E+02
1.173368886E+00  1.972792664E+02
1.178192308E+00  1.997343597E+02
1.183015731E+00  2.020588379E+02
1.187839153E+00  2.039059143E+02
1.192662575E+00  2.047590179E+02
1.197485997E+00  2.054928741E+02
1.202309419E+00  2.059600983E+02
1.207132841E+00  2.067708588E+02
1.211956264E+00  2.076916199E+02
1.216779686E+00  2.083083191E+02
1.221603108E+00  2.088409424E+02
1.226426530E+00  2.103093872E+02
1.231249952E+00  2.115431366E+02
1.236073374E+00  2.126619720E+02
1.240896797E+00  2.132669373E+02
1.245720219E+00  2.131950378E+02
1.250543641E+00  2.134669952E+02
1.255367063E+00  2.135336914E+02
1.260190485E+00  2.143489075E+02
1.265013907E+00  2.150167236E+02
1.269837330E+00  2.157706909E+02
1.274660752E+00  2.149270477E+02
1.279484174E+00  2.152716064E+02
1.284307596E+00  2.152969818E+02
1.289131018E+00  2.152626343E+02
1.293954440E+00  2.156193390E+02
1.298777862E+00  2.159524231E+02
1.303601285E+00  2.166182709E+02
1.308424707E+00  2.181940613E+02
1.313248129E+00  2.184267731E+02
1.318071551E+00  2.180787354E+02
1.322894973E+00  2.178758698E+02
1.327718395E+00  2.184674225E+02
1.332541818E+00  2.194493408E+02
1.337365240E+00  2.191590576E+02
1.342188662E+00  2.181273346E+02
1.347012084E+00  2.180384979E+02
1.351835506E+00  2.190579681E+02
1.356658928E+00  2.197989044E+02
1.361482351E+00  2.214945068E+02
1.366305773E+00  2.227648163E+02
1.371129195E+00  2.230546722E+02
1.375952617E+00  2.224087524E+02
1.380776039E+00  2.233932648E+02
1.385599461E+00  2.240460968E+02
1.390422884E+00  2.242233429E+02
1.395246306E+00  2.240937653E+02
1.400069728E+00  2.237292023E+02
1.404893150E+00  2.250195312E+02
1.409716572E+00  2.258944092E+02
1.414539994E+00  2.249054871E+02
1.419363417E+00  2.248710632E+02
1.424186839E+00  2.254396667E+02
1.429010261E+00  2.249476166E+02
1.433833683E+00  2.250334167E+02
1.438657105E+00  2.265834351E+02
1.443480527E+00  2.279105225E+02
1.448303949E+00  2.281862335E+02
1.453127372E+00  2.285862579E+02
1.457950794E+00  2.298663788E+02
1.462774216E+00  2.301746674E+02
1.467597638E+00  2.291631470E+02
1.472421060E+00  2.281510315E+02
1.477244482E+00  2.274963226E+02
1.482067905E+00  2.275955811E+02
1.486891327E+00  2.286995087E+02
1.491714749E+00  2.299323883E+02
1.496538171E+00  2.317990265E+02
1.501361593E+00  2.324136047E+02
1.506185015E+00  2.315307922E+02
1.511008438E+00  2.312481232E+02
1.515831860E+00  2.322882385E+02
1.520655282E+00  2.333413544E+02
1.525478704E+00  2.334580383E+02
1.530302126E+00  2.340671844E+02
1.535125548E+00  2.347325897E+02
1.539948971E+00  2.344544983E+02
1.544772393E+00  2.343310547E+02
1.549595815E+00  2.353370514E+02
1.554419237E+00  2.354061279E+02
1.559242659E+00  2.340583344E+02
1.564066081E+00  2.345559845E+02
1.568889504E+00  2.356862640E+02
1.573712926E+00  2.356928253E+02
1.578536348E+00  2.355509949E+02
1.583359770E+00  2.360624084E+02
1.588183192E+00  2.371615753E+02
1.593006614E+00  2.390221100E+02
1.597830036E+00  2.397030487E+02
1.602653459E+00  2.407400970E+02
1.607476881E+00  2.408531494E+02
1.612300303E+00  2.397654419E+02
1.617123725E+00  2.380649109E+02
1.621947147E+00  2.381288300E+02
1.626770569E+00  2.388851013E+02
1.631593992E+00  2.400011444E+02
1.636417414E+00  2.398696899E+02
1.641240836E+00  2.395815277E+02
1.646064258E+00  2.388177185E+02
1.650887680E+00  2.391601562E+02
1.655711102E+00  2.400384064E+02
1.660534525E+00  2.400415192E+02
1.665357947E+00  2.398476257E+02
1.670181369E+00  2.403764648E+02
1.675004791E+00  2.423068085E+02
1.679828213E+00  2.425427399E+02
1.684651635E+00  2.409647980E+02
1.689475058E+00  2.392677460E+02
1.694298480E+00  2.399702301E+02
1.699121902E+00  2.413868866E+02
1.703945324E+00  2.417652588E+02
1.708768746E+00  2.420668793E+02
1.713592168E+00  2.422147827E+02
1.718415590E+00  2.434297180E+02
1.723239013E+00  2.447810516E+02
1.728062435E+00  2.438995972E+02
1.732885857E+00  2.420096436E+02
1.737709279E+00  2.409661255E+02
1.742532701E+00  2.411072083E+02
1.747356123E+00  2.427606812E+02
1.752179546E+00  2.440388794E+02
1.757002968E+00  2.446874542E+02
1.761826390E+00  2.452673798E+02
1.766649812E+00  2.458538361E+02
1.771473234E+00  2.458812866E+02
1.776296656E+00  2.452344818E+02
1.781120079E+00  2.448106079E+02
1.785943501E+00  2.441757965E+02
1.790766923E+00  2.446171570E+02
1.795590345E+00  2.461042938E+02
1.800413767E+00  2.458637543E+02
1.805237189E+00  2.467075043E+02
1.810060612E+00  2.486802216E+02
1.814884034E+00  2.492581940E+02
1.819707456E+00  2.490940704E+02
1.824530878E+00  2.489788818E+02
1.829354300E+00  2.489047546E+02
1.834177722E+00  2.482685547E+02
1.839001145E+00  2.479530487E+02
1.843824567E+00  2.471174774E+02
1.848647989E+00  2.472175751E+02
1.853471411E+00  2.478809662E+02
1.858294833E+00  2.489927521E+02
1.863118255E+00  2.503004608E+02
1.867941677E+00  2.508414612E+02
1.872765100E+00  2.504858093E+02
1.877588522E+00  2.498285217E+02
1.882411944E+00  2.495448303E+02
1.887235366E+00  2.499134216E+02
1.892058788E+00  2.506178741E+02
1.896882210E+00  2.512797089E+02
1.901705633E+00  2.521765289E+02
1.906529055E+00  2.512928314E+02
1.911352477E+00  2.510557098E+02
1.916175899E+00  2.514111633E+02
1.920999321E+00  2.525972137E+02
1.925822743E+00  2.529868622E+02
1.930646166E+00  2.522939606E+02
1.935469588E+00  2.522783356E+02
1.940293010E+00  2.529501801E+02
1.945116432E+00  2.540951996E+02
1.949939854E+00  2.542035065E+02
1.954763276E+00  2.546974945E+02
1.959586699E+00  2.551863403E+02
1.964410121E+00  2.551508789E+02
1.969233543E+00  2.550879517E+02
1.974056965E+00  2.554244995E+02
1.978880387E+00  2.561882019E+02
1.983703809E+00  2.565221558E+02
1.988527232E+00  2.555317688E+02
1.993350654E+00  2.557046661E+02
1.998174076E+00  2.566969299E+02
2.002997498E+00  2.555028229E+02
2.007820920E+00  2.540630035E+02
2.012644342E+00  2.560913086E+02
2.017467764E+00  2.568546753E+02
2.022291187E+00  2.568068237E+02
2.027114609E+00  2.569580078E+02
2.031938031E+00  2.563465881E+02
2.036761453E+00  2.564618225E+02
2.041584875E+00  2.566975403E+02
2.046408297E+00  2.562217102E+02
2.051231720E+00  2.552716370E+02
2.056055142E+00  2.550989532E+02
2.060878564E+00  2.565359802E+02
2.065701986E+00  2.585567932E+02
2.070525408E+00  2.602514343E+02
2.075348830E+00  2.601238708E+02
2.080172253E+00  2.607375183E+02
2.084995675E+00  2.596929932E+02
2.089819097E+00  2.588783264E+02
2.094642519E+00  2.581979980E+02
2.099465941E+00  2.578019714E+02
2.104289363E+00  2.580066223E+02
2.109112786E+00  2.584523010E+02
2.113936208E+00  2.584763184E+02
2.118759630E+00  2.584205627E+02
2.123583052E+00  2.581949768E+02
2.128406474E+00  2.588833313E+02
2.133229896E+00  2.598684998E+02
2.138053319E+00  2.609814758E+02
2.142876741E+00  2.610123291E+02
2.147700163E+00  2.598201294E+02
2.152523585E+00  2.583442383E+02
2.157347007E+00  2.568976440E+02
2.162170429E+00  2.572113037E+02
2.166993851E+00  2.591109924E+02
2.171817274E+00  2.612127075E+02
2.176640696E+00  2.625628357E+02
2.181464118E+00  2.641089478E+02
2.186287540E+00  2.647138672E+02
2.191110962E+00  2.631343079E+02
2.195934384E+00  2.603717651E+02
2.200757807E+00  2.597639465E+02
2.205581229E+00  2.610219116E+02
2.210404651E+00  2.616804810E+02
2.215228073E+00  2.622095947E+02
2.220051495E+00  2.634541016E+02
2.224874917E+00  2.634006348E+02
2.229698340E+00  2.623423157E+02
2.234521762E+00  2.634715881E+02
2.239345184E+00  2.643405457E+02
2.244168606E+00  2.636935730E+02
2.248992028E+00  2.622496643E+02
2.253815450E+00  2.628818665E+02
2.258638873E+00  2.636447449E+02
2.263462295E+00  2.638720093E+02
2.268285717E+00  2.632937012E+02
2.273109139E+00  2.634833069E+02
2.277932561E+00  2.628973999E+02
2.282755983E+00  2.622801819E+02
2.287579406E+00  2.624411621E+02
2.292402828E+00  2.635652466E+02
2.297226250E+00  2.638484497E+02
2.302049672E+00  2.642790222E+02
2.306873094E+00  2.641063538E+02
2.311696516E+00  2.632291565E+02
2.316519938E+00  2.637880859E+02
2.321343361E+00  2.647961121E+02
2.326166783E+00  2.656065063E+02
2.330990205E+00  2.659877625E+02
2.335813627E+00  2.661091003E+02
2.340637049E+00  2.652328796E+02
2.345460471E+00  2.653294373E+02
2.350283894E+00  2.665156555E+02
2.355107316E+00  2.673993225E+02
2.359930738E+00  2.678490295E+02
2.364754160E+00  2.674358521E+02
2.369577582E+00  2.660796814E+02
2.374401004E+00  2.655986023E+02
2.379224427E+00  2.652056580E+02
2.384047849E+00  2.644329834E+02
2.388871271E+00  2.643309021E+02
2.393694693E+00  2.664482117E+02
2.398518115E+00  2.670104675E+02
2.403341537E+00  2.672980042E+02
2.408164960E+00  2.682308044E+02
2.412988382E+00  2.689001465E+02
2.417811804E+00  2.682147217E+02
2.422635226E+00  2.678906555E+02
2.427458648E+00  2.676643982E+02
2.432282070E+00  2.684374084E+02
2.437105492E+00  2.682312622E+02
2.441928915E+00  2.677205200E+02
2.446752337E+00  2.691257935E+02
2.451575759E+00  2.694505310E+02
2.456399181E+00  2.690683899E+02
2.461222603E+00  2.691250000E+02
2.466046025E+00  2.681268311E+02
2.470869448E+00  2.672694702E+02
2.475692870E+00  2.679960022E+02
2.480516292E+00  2.698620300E+02
2.485339714E+00  2.707226868E+02
2.490163136E+00  2.702167664E+02
2.494986558E+00  2.700362854E+02
2.499809981E+00  2.698544006E+02
2.504633403E+00  2.685739136E+02
2.509456825E+00  2.671569214E+02
2.514280247E+00  2.664916382E+02
2.519103669E+00  2.662340698E+02
2.523927091E+00  2.669245605E+02
2.528750514E+00  2.682159119E+02
2.533573936E+00  2.681534119E+02
2.538397358E+00  2.678473511E+02
2.543220780E+00  2.682317505E+02
2.548044202E+00  2.682170715E+02
2.552867624E+00  2.681788940E+02
2.557691047E+00  2.686937866E+02
2.562514469E+00  2.692102051E+02
2.567337891E+00  2.701671448E+02
2.572161313E+00  2.704983215E+02
2.576984735E+00  2.697453308E+02
2.581808157E+00  2.691982727E+02
2.586631579E+00  2.703966370E+02
2.591455002E+00  2.703833313E+02
2.596278424E+00  2.697104187E+02
2.601101846E+00  2.687555237E+02
2.605925268E+00  2.679475708E+02
2.610748690E+00  2.685475464E+02
2.615572112E+00  2.698698120E+02
2.620395535E+00  2.697066956E+02
2.625218957E+00  2.714009399E+02
2.630042379E+00  2.724162292E+02
2.634865801E+00  2.718764038E+02
2.639689223E+00  2.712932739E+02
2.644512645E+00  2.709444275E+02
2.649336068E+00  2.704570923E+02
2.654159490E+00  2.694447937E+02
2.658982912E+00  2.685874634E+02
2.663806334E+00  2.689182739E+02
2.668629756E+00  2.691246948E+02
2.673453178E+00  2.695277100E+02
2.678276601E+00  2.689835510E+02
2.683100023E+00  2.689102478E+02
2.687923445E+00  2.691342163E+02
2.692746867E+00  2.701047058E+02
2.697570289E+00  2.707834167E+02
2.702393711E+00  2.715028687E+02
2.707217134E+00  2.720728760E+02
2.712040556E+00  2.722840576E+02
2.716863978E+00  2.719187927E+02
2.721687400E+00  2.712538757E+02
2.726510822E+00  2.712480469E+02
2.731334244E+00  2.712837830E+02
2.736157666E+00  2.714562683E+02
2.740981089E+00  2.717597351E+02
2.745804511E+00  2.714390259E+02
2.750627933E+00  2.711080933E+02
2.755451355E+00  2.702186584E+02
2.760274777E+00  2.709566650E+02
2.765098199E+00  2.701265564E+02
2.769921622E+00  2.689362183E+02
2.774745044E+00  2.681137085E+02
2.779568466E+00  2.680233459E+02
2.784391888E+00  2.685776367E+02
2.789215310E+00  2.686542664E+02
2.794038732E+00  2.685979004E+02
2.798862155E+00  2.690840149E+02
2.803685577E+00  2.686390991E+02
2.808508999E+00  2.700268555E+02
2.813332421E+00  2.709310913E+02
2.818155843E+00  2.708500977E+02
2.822979265E+00  2.698840942E+02
2.827802688E+00  2.686310425E+02
2.832626110E+00  2.690772095E+02
2.837449532E+00  2.706417542E+02
2.842272954E+00  2.707657166E+02
2.847096376E+00  2.704981995E+02
2.851919798E+00  2.693772888E+02
2.856743221E+00  2.685127258E+02
2.861566643E+00  2.673052979E+02
2.866390065E+00  2.663638611E+02
2.871213487E+00  2.670923462E+02
2.876036909E+00  2.692421570E+02
2.880860331E+00  2.700467529E+02
2.885683753E+00  2.710406189E+02
2.890507176E+00  2.721705933E+02
2.895330598E+00  2.716387634E+02
2.900154020E+00  2.710067444E+02
2.904977442E+00  2.706589966E+02
2.909800864E+00  2.708783264E+02
2.914624286E+00  2.712962036E+02
2.919447709E+00  2.712407837E+02
2.924271131E+00  2.699268799E+02
2.929094553E+00  2.691606140E+02
2.933917975E+00  2.696741638E+02
2.938741397E+00  2.705826416E+02
2.943564819E+00  2.710130615E+02
2.948388242E+00  2.708274841E+02
2.953211664E+00  2.705959473E+02
2.958035086E+00  2.704578857E+02
2.962858508E+00  2.700963745E+02
2.967681930E+00  2.699645996E+02
2.972505352E+00  2.714132080E+02
2.977328775E+00  2.727063599E+02
2.982152197E+00  2.720865479E+02
2.986975619E+00  2.718647461E+02
2.991799041E+00  2.703075256E+02
2.996622463E+00  2.705957642E+02
3.001445885E+00  2.718263550E+02
3.006269308E+00  2.723250427E+02
3.011092730E+00  2.727522278E+02
3.015916152E+00  2.726495667E+02
3.020739574E+00  2.728456726E+02
3.025562996E+00  2.729421082E+02
3.030386418E+00  2.722139893E+02
3.035209840E+00  2.710435791E+02
3.040033263E+00  2.692059021E+02
3.044856685E+00  2.681771545E+02
3.049680107E+00  2.694716187E+02
3.054503529E+00  2.708603210E+02
3.059326951E+00  2.710457764E+02
3.064150373E+00  2.710549622E+02
3.068973796E+00  2.708268433E+02
3.073797218E+00  2.700989990E+02
3.078620640E+00  2.704354858E+02
3.083444062E+00  2.705581360E+02
3.088267484E+00  2.705972290E+02
3.093090906E+00  2.707682495E+02
3.097914329E+00  2.702147217E+02
3.102737751E+00  2.699403992E+02
3.107561173E+00  2.692160645E+02
3.112384595E+00  2.683599243E+02
3.117208017E+00  2.685446472E+02
3.122031439E+00  2.702350159E+02
3.126854862E+00  2.712402649E+02
3.131678284E+00  2.712742920E+02
3.136501706E+00  2.706498718E+02
3.141325128E+00  2.710601196E+02
3.146148550E+00  2.723198242E+02
3.150971972E+00  2.714497375E+02
3.155795395E+00  2.691277466E+02
3.160618817E+00  2.684158020E+02
3.165442239E+00  2.678790283E+02
3.170265661E+00  2.685714722E+02
3.175089083E+00  2.693604431E+02
3.179912505E+00  2.683909607E+02
3.184735927E+00  2.676998901E+02
3.189559350E+00  2.671937866E+02
3.194382772E+00  2.677240601E+02
3.199206194E+00  2.687074890E+02
3.204029616E+00  2.694050293E+02
3.208853038E+00  2.692108459E+02
3.213676460E+00  2.687392578E+02
3.218499883E+00  2.689270020E+02
3.223323305E+00  2.680568237E+02
3.228146727E+00  2.686520691E+02
3.232970149E+00  2.697964783E+02
3.237793571E+00  2.706777039E+02
3.242616993E+00  2.712731323E+02
3.247440416E+00  2.717828979E+02
3.252263838E+00  2.712840271E+02
3.257087260E+00  2.692058411E+02
3.261910682E+00  2.682404785E+02
3.266734104E+00  2.682743530E+02
3.271557526E+00  2.691046753E+02
3.276380949E+00  2.681970520E+02
3.281204371E+00  2.675083008E+02
3.286027793E+00  2.680688171E+02
3.290851215E+00  2.697252502E+02
3.295674637E+00  2.709175415E+02
3.300498059E+00  2.707821655E+02
3.305321481E+00  2.710710754E+02
3.310144904E+00  2.702188416E+02
3.314968326E+00  2.689950562E+02
3.319791748E+00  2.686640625E+02
3.324615170E+00  2.679153442E+02
3.329438592E+00  2.674625244E+02
3.334262014E+00  2.696604919E+02
3.339085437E+00  2.715928040E+02
3.343908859E+00  2.713565979E+02
3.348732281E+00  2.703041077E+02
3.353555703E+00  2.696475830E+02
3.358379125E+00  2.699109802E+02
3.363202547E+00  2.700632629E+02
3.368025970E+00  2.696401062E+02
3.372849392E+00  2.699416504E+02
3.377672814E+00  2.710216064E+02
3.382496236E+00  2.712482605E+02
3.387319658E+00  2.707858887E+02
3.392143080E+00  2.698377075E+02
3.396966503E+00  2.683460999E+02
3.401789925E+00  2.674771423E+02
3.406613347E+00  2.677015381E+02
3.411436769E+00  2.683888550E+02
3.416260191E+00  2.686581726E+02
3.421083613E+00  2.684934082E+02
3.425907036E+00  2.691296082E+02
3.430730458E+00  2.694360352E+02
3.435553880E+00  2.689160461E+02
3.440377302E+00  2.685889282E+02
3.445200724E+00  2.688949280E+02
3.450024146E+00  2.687572327E+02
3.454847568E+00  2.677587585E+02
3.459670991E+00  2.683210754E+02
3.464494413E+00  2.697973328E+02
3.469317835E+00  2.700650635E+02
3.474141257E+00  2.702117920E+02
3.478964679E+00  2.703818665E+02
3.483788101E+00  2.702919006E+02
3.488611524E+00  2.689851379E+02
3.493434946E+00  2.679921570E+02
3.498258368E+00  2.679176025E+02
3.503081790E+00  2.687304688E+02
3.507905212E+00  2.689866638E+02
3.512728634E+00  2.688157043E+02
3.517552057E+00  2.685928650E+02
3.522375479E+00  2.688417664E+02
3.527198901E+00  2.684255371E+02
3.532022323E+00  2.682174072E+02
3.536845745E+00  2.675207214E+02
3.541669167E+00  2.669635010E+02
3.546492590E+00  2.672121887E+02
3.551316012E+00  2.679792175E+02
3.556139434E+00  2.682824097E+02
3.560962856E+00  2.680217285E+02
3.565786278E+00  2.675680847E+02
3.570609700E+00  2.675207520E+02
3.575433123E+00  2.676593628E+02
3.580256545E+00  2.677584534E+02
3.585079967E+00  2.678716431E+02
3.589903389E+00  2.698107300E+02
3.594726811E+00  2.694232483E+02
3.599550233E+00  2.680601807E+02
3.604373655E+00  2.667848206E+02
3.609197078E+00  2.669541321E+02
3.614020500E+00  2.669551697E+02
3.618843922E+00  2.668677979E+02
3.623667344E+00  2.665143127E+02
3.628490766E+00  2.665045776E+02
3.633314188E+00  2.663480530E+02
3.638137611E+00  2.660852661E+02
3.642961033E+00  2.648444214E+02
3.647784455E+00  2.646254883E+02
3.652607877E+00  2.650064087E+02
3.657431299E+00  2.650301819E+02
3.662254721E+00  2.661748047E+02
3.667078144E+00  2.666494446E+02
3.671901566E+00  2.667903137E+02
3.676724988E+00  2.660751038E+02
3.681548410E+00  2.650200195E+02
3.686371832E+00  2.643479004E+02
3.691195254E+00  2.644961243E+02
3.696018677E+00  2.651765137E+02
3.700842099E+00  2.653602295E+02
3.705665521E+00  2.646302185E+02
3.710488943E+00  2.637032166E+02
3.715312365E+00  2.635174561E+02
3.720135787E+00  2.644154663E+02
3.724959210E+00  2.647511902E+02
3.729782632E+00  2.637561340E+02
3.734606054E+00  2.625363159E+02
3.739429476E+00  2.642752686E+02
3.744252898E+00  2.651244812E+02
3.749076320E+00  2.637422791E+02
3.753899742E+00  2.632544861E+02
3.758723165E+00  2.638749084E+02
3.763546587E+00  2.643143005E+02
3.768370009E+00  2.637225647E+02
3.773193431E+00  2.630074158E+02
3.778016853E+00  2.635995178E+02
3.782840275E+00  2.639079285E+02
3.787663698E+00  2.644628601E+02
3.792487120E+00  2.656374207E+02
3.797310542E+00  2.663122253E+02
3.802133964E+00  2.650503540E+02
3.806957386E+00  2.638605957E+02
3.811780808E+00  2.630137329E+02
3.816604231E+00  2.624911499E+02
3.821427653E+00  2.619496155E+02
3.826251075E+00  2.618453064E+02
3.831074497E+00  2.627985535E+02
3.835897919E+00  2.631770020E+02
3.840721341E+00  2.634463806E+02
3.845544764E+00  2.639346008E+02
3.850368186E+00  2.636361389E+02
3.855191608E+00  2.626330872E+02
3.860015030E+00  2.611382141E+02
3.864838452E+00  2.612103271E+02
3.869661874E+00  2.619023132E+02
3.874485297E+00  2.622715149E+02
3.879308719E+00  2.625382080E+02
3.884132141E+00  2.616289368E+02
3.888955563E+00  2.611331787E+02
3.893778985E+00  2.617802124E+02
3.898602407E+00  2.623541260E+02
3.903425829E+00  2.613271179E+02
3.908249252E+00  2.599202271E+02
3.913072674E+00  2.591585388E+02
3.917896096E+00  2.602408752E+02
3.922719518E+00  2.618973083E+02
3.927542940E+00  2.624376831E+02
3.932366362E+00  2.624191284E+02
3.937189785E+00  2.615838013E+02
3.942013207E+00  2.608120728E+02
3.946836629E+00  2.607993164E+02
3.951660051E+00  2.620448914E+02
3.956483473E+00  2.628840332E+02
3.961306895E+00  2.626926270E+02
3.966130318E+00  2.621163940E+02
3.970953740E+00  2.605941467E+02
3.975777162E+00  2.599268494E+02
3.980600584E+00  2.602705994E+02
3.985424006E+00  2.608315735E+02
3.990247428E+00  2.610813904E+02
3.995070851E+00  2.616201782E+02
3.999894273E+00  2.606692810E+02
4.004717695E+00  2.602017822E+02
4.009541117E+00  2.588090210E+02
4.014364539E+00  2.592420349E+02
4.019187961E+00  2.611101074E+02
4.024011384E+00  2.612970276E+02
4.028834806E+00  2.607304993E+02
4.033658228E+00  2.588685608E+02
4.038481650E+00  2.579201965E+02
4.043305072E+00  2.581611328E+02
4.048128494E+00  2.584962769E+02
4.052951916E+00  2.593617249E+02
4.057775339E+00  2.607198181E+02
4.062598761E+00  2.601200256E+02
4.067422183E+00  2.596509705E+02
4.072245605E+00  2.594699402E+02
4.077069027E+00  2.594898071E+02
4.081892449E+00  2.599137573E+02
4.086715872E+00  2.597522583E+02
4.091539294E+00  2.596344604E+02
4.096362716E+00  2.598296204E+02
4.101186138E+00  2.603919983E+02
4.106009560E+00  2.606962585E+02
4.110832982E+00  2.605183105E+02
4.115656405E+00  2.600466919E+02
4.120479827E+00  2.590799561E+02
4.125303249E+00  2.589243469E+02
4.130126671E+00  2.577554321E+02
4.134950093E+00  2.573581543E+02
4.139773515E+00  2.582964172E+02
4.144596938E+00  2.595917969E+02
4.149420360E+00  2.608498230E+02
4.154243782E+00  2.611935425E+02
4.159067204E+00  2.608936462E+02
4.163890626E+00  2.590009460E+02
4.168714048E+00  2.564666443E+02
4.173537470E+00  2.553244629E+02
4.178360893E+00  2.560562744E+02
4.183184315E+00  2.570956116E+02
4.188007737E+00  2.580218811E+02
4.192831159E+00  2.581138306E+02
4.197654581E+00  2.572083435E+02
4.202478003E+00  2.563608398E+02
4.207301426E+00  2.560386353E+02
4.212124848E+00  2.551744385E+02
4.216948270E+00  2.546730804E+02
4.221771692E+00  2.543835907E+02
4.226595114E+00  2.547117767E+02
4.231418536E+00  2.545635376E+02
4.236241959E+00  2.546292267E+02
4.241065381E+00  2.552817993E+02
4.245888803E+00  2.563412781E+02
4.250712225E+00  2.562437744E+02
4.255535647E+00  2.546489105E+02
4.260359069E+00  2.534065857E+02
4.265182492E+00  2.535867310E+02
4.270005914E+00  2.533862000E+02
4.274829336E+00  2.531170502E+02
4.279652758E+00  2.534810638E+02
4.284476180E+00  2.525682831E+02
4.289299602E+00  2.513914948E+02
4.294123025E+00  2.501291351E+02
4.298946447E+00  2.503180542E+02
4.303769869E+00  2.510297852E+02
4.308593291E+00  2.517593689E+02
4.313416713E+00  2.514692535E+02
4.318240135E+00  2.510243683E+02
4.323063557E+00  2.513510437E+02
4.327886980E+00  2.513383331E+02
4.332710402E+00  2.502723694E+02
4.337533824E+00  2.503881836E+02
4.342357246E+00  2.511099243E+02
4.347180668E+00  2.512005463E+02
4.352004090E+00  2.510385437E+02
4.356827513E+00  2.503049164E+02
4.361650935E+00  2.493580017E+02
4.366474357E+00  2.496435242E+02
4.371297779E+00  2.493152771E+02
4.376121201E+00  2.490929413E+02
4.380944623E+00  2.495648193E+02
4.385768046E+00  2.491956635E+02
4.390591468E+00  2.484550629E+02
4.395414890E+00  2.483908691E+02
4.400238312E+00  2.479184875E+02
4.405061734E+00  2.485292206E+02
4.409885156E+00  2.486509247E+02
4.414708579E+00  2.488074188E+02
4.419532001E+00  2.487355652E+02
4.424355423E+00  2.479546509E+02
4.429178845E+00  2.472536316E+02
4.434002267E+00  2.488830566E+02
4.438825689E+00  2.489023438E+02
4.443649112E+00  2.498111267E+02
4.448472534E+00  2.502954865E+02
4.453295956E+00  2.493240204E+02
4.458119378E+00  2.489774323E+02
4.462942800E+00  2.492665558E+02
4.467766222E+00  2.501563721E+02
4.472589644E+00  2.517445984E+02
4.477413067E+00  2.519781189E+02
4.482236489E+00  2.510939636E+02
4.487059911E+00  2.506334534E+02
4.491883333E+00  2.507149658E+02
4.496706755E+00  2.492103882E+02
4.501530177E+00  2.474288177E+02
4.506353600E+00  2.461599579E+02
4.511177022E+00  2.452270355E+02
4.516000444E+00  2.437951508E+02
4.520823866E+00  2.433865967E+02
4.525647288E+00  2.443465271E+02
4.530470710E+00  2.451768799E+02
4.535294133E+00  2.449383545E+02
4.540117555E+00  2.454789734E+02
4.544940977E+00  2.456535492E+02
4.549764399E+00  2.453826904E+02
4.554587821E+00  2.454774170E+02
4.559411243E+00  2.448384552E+02
4.564234666E+00  2.447781982E+02
4.569058088E+00  2.459025879E+02
4.573881510E+00  2.457396545E+02
4.578704932E+00  2.445774231E+02
4.583528354E+00  2.441941528E+02
4.588351776E+00  2.446734161E+02
4.593175199E+00  2.436131439E+02
4.597998621E+00  2.419205933E+02
4.602822043E+00  2.412105103E+02
4.607645465E+00  2.421919250E+02
4.612468887E+00  2.421558990E+02
4.617292309E+00  2.416543732E+02
4.622115731E+00  2.416441650E+02
4.626939154E+00  2.407780151E+02
4.631762576E+00  2.402915497E+02
4.636585998E+00  2.405030365E+02
4.641409420E+00  2.412866211E+02
4.646232842E+00  2.412909851E+02
4.651056264E+00  2.408148956E+02
4.655879687E+00  2.410420532E+02
4.660703109E+00  2.407824402E+02
4.665526531E+00  2.395221863E+02
4.670349953E+00  2.395462036E+02
4.675173375E+00  2.386731110E+02
4.679996797E+00  2.382969971E+02
4.684820220E+00  2.380286713E+02
4.689643642E+00  2.386655579E+02
4.694467064E+00  2.381458282E+02
4.699290486E+00  2.377542419E+02
4.704113908E+00  2.381385651E+02
4.708937330E+00  2.382216187E+02
4.713760753E+00  2.368620300E+02
4.718584175E+00  2.358392487E+02
4.723407597E+00  2.359781494E+02
4.728231019E+00  2.360688477E+02
4.733054441E+00  2.357862701E+02
4.737877863E+00  2.354818420E+02
4.742701286E+00  2.353421783E+02
4.747524708E+00  2.359384766E+02
4.752348130E+00  2.349467163E+02
4.757171552E+00  2.351217957E+02
4.761994974E+00  2.354996033E+02
4.766818396E+00  2.349378052E+02
4.771641818E+00  2.337286530E+02
4.776465241E+00  2.331890869E+02
4.781288663E+00  2.337909851E+02
4.786112085E+00  2.336592102E+02
4.790935507E+00  2.335040131E+02
4.795758929E+00  2.332224121E+02
4.800582351E+00  2.327483826E+02
4.805405774E+00  2.321450348E+02
4.810229196E+00  2.324692841E+02
4.815052618E+00  2.326827698E+02
4.819876040E+00  2.326343689E+02
4.824699462E+00  2.318917084E+02
4.829522884E+00  2.319560394E+02
4.834346307E+00  2.332227325E+02
4.839169729E+00  2.336809540E+02
4.843993151E+00  2.323818359E+02
4.848816573E+00  2.319798889E+02
4.853639995E+00  2.323921967E+02
4.858463417E+00  2.328467560E+02
4.863286840E+00  2.325194702E+02
4.868110262E+00  2.307342224E+02
4.872933684E+00  2.302156525E+02
4.877757106E+00  2.306314545E+02
4.882580528E+00  2.300229492E+02
4.887403950E+00  2.303211823E+02
4.892227373E+00  2.294231415E+02
4.897050795E+00  2.294980011E+02
4.901874217E+00  2.302837830E+02
4.906697639E+00  2.293108978E+02
4.911521061E+00  2.285177612E+02
4.916344483E+00  2.289086456E+02
4.921167905E+00  2.291930542E+02
4.925991328E+00  2.290583038E+02
4.930814750E+00  2.286285400E+02
4.935638172E+00  2.279380646E+02
4.940461594E+00  2.274136505E+02
4.945285016E+00  2.271487427E+02
4.950108438E+00  2.270346832E+02
4.954931861E+00  2.270790558E+02
4.959755283E+00  2.268118744E+02
4.964578705E+00  2.259607697E+02
4.969402127E+00  2.269596405E+02
4.974225549E+00  2.270965424E+02
4.979048971E+00  2.253220215E+02
4.983872394E+00  2.241367950E+02
4.988695816E+00  2.243807831E+02
4.993519238E+00  2.252309570E+02
4.998342660E+00  2.252559967E+02
5.003166082E+00  2.249176178E+02
5.007989504E+00  2.240402527E+02
5.012812927E+00  2.236167450E+02
5.017636349E+00  2.226841431E+02
5.022459771E+00  2.209077148E+02
5.027283193E+00  2.196841278E+02
5.032106615E+00  2.198765869E+02
5.036930037E+00  2.208354340E+02
5.041753459E+00  2.212743073E+02
5.046576882E+00  2.210853729E+02
5.051400304E+00  2.199827728E+02
5.056223726E+00  2.192354431E+02
5.061047148E+00  2.186102448E+02
5.065870570E+00  2.182671356E+02
5.070693992E+00  2.188379822E+02
5.075517415E+00  2.191763000E+02
5.080340837E+00  2.187096863E+02
5.085164259E+00  2.174555054E+02
5.089987681E+00  2.169711304E+02
5.094811103E+00  2.167530212E+02
5.099634525E+00  2.154797058E+02
5.104457948E+00  2.161155396E+02
5.109281370E+00  2.166966705E+02
5.114104792E+00  2.166590881E+02
5.118928214E+00  2.167061462E+02
5.123751636E+00  2.157319489E+02
5.128575058E+00  2.148022766E+02
5.133398481E+00  2.145623932E+02
5.138221903E+00  2.143074036E+02
5.143045325E+00  2.137234650E+02
5.147868747E+00  2.132716675E+02
5.152692169E+00  2.134122162E+02
5.157515591E+00  2.128549042E+02
5.162339014E+00  2.121068573E+02
5.167162436E+00  2.114130859E+02
5.171985858E+00  2.112810822E+02
5.176809280E+00  2.112192535E+02
5.181632702E+00  2.111978455E+02
5.186456124E+00  2.107923889E+02
5.191279546E+00  2.107790375E+02
5.196102969E+00  2.107431183E+02
5.200926391E+00  2.109145050E+02
5.205749813E+00  2.100519714E+02
5.210573235E+00  2.092279205E+02
5.215396657E+00  2.079906464E+02
5.220220079E+00  2.073816528E+02
5.225043502E+00  2.067942200E+02
5.229866924E+00  2.066358948E+02
5.234690346E+00  2.061057892E+02
5.239513768E+00  2.048280182E+02
5.244337190E+00  2.047818146E+02
5.249160612E+00  2.041438293E+02
5.253984035E+00  2.046937561E+02
5.258807457E+00  2.057878113E+02
5.263630879E+00  2.063986206E+02
5.268454301E+00  2.073521576E+02
5.273277723E+00  2.074047241E+02
5.278101145E+00  2.073511810E+02
5.282924568E+00  2.067340393E+02
5.287747990E+00  2.052903595E+02
5.292571412E+00  2.050415955E+02
5.297394834E+00  2.041509857E+02
5.302218256E+00  2.035395203E+02
5.307041678E+00  2.040644989E+02
5.311865101E+00  2.037800598E+02
5.316688523E+00  2.040546570E+02
5.321511945E+00  2.028677826E+02
5.326335367E+00  2.017108765E+02
5.331158789E+00  2.017686310E+02
5.335982211E+00  2.026488495E+02
5.340805633E+00  2.021433868E+02
5.345629056E+00  2.014735565E+02
5.350452478E+00  2.007024536E+02
5.355275900E+00  2.017322083E+02
5.360099322E+00  2.025112152E+02
5.364922744E+00  2.024716187E+02
5.369746166E+00  2.016104126E+02
5.374569589E+00  2.009913788E+02
5.379393011E+00  1.999397278E+02
5.384216433E+00  1.986245270E+02
5.389039855E+00  1.988415070E+02
5.393863277E+00  1.990797882E+02
5.398686699E+00  1.985486450E+02
5.403510122E+00  1.970503998E+02
5.408333544E+00  1.960239105E+02
5.413156966E+00  1.967003632E+02
5.417980388E+00  1.972245941E+02
5.422803810E+00  1.979385986E+02
5.427627232E+00  1.987822418E+02
5.432450655E+00  1.978165741E+02
5.437274077E+00  1.977010651E+02
5.442097499E+00  1.979856110E+02
5.446920921E+00  1.977797546E+02
5.451744343E+00  1.973074951E+02
5.456567765E+00  1.968994293E+02
5.461391188E+00  1.971783600E+02
5.466214610E+00  1.963847504E+02
5.471038032E+00  1.958298950E+02
5.475861454E+00  1.957385864E+02
5.480684876E+00  1.952942657E+02
5.485508298E+00  1.947538147E+02
5.490331720E+00  1.952522430E+02
5.495155143E+00  1.940848083E+02
5.499978565E+00  1.929184875E+02
5.504801987E+00  1.926254883E+02
5.509625409E+00  1.931260681E+02
5.514448831E+00  1.939807434E+02
5.519272253E+00  1.942863312E+02
5.524095676E+00  1.930348511E+02
5.528919098E+00  1.926350861E+02
5.533742520E+00  1.922072906E+02
5.538565942E+00  1.909361115E+02
5.543389364E+00  1.901844025E+02
5.548212786E+00  1.900531006E+02
5.553036209E+00  1.901311798E+02
5.557859631E+00  1.908064880E+02
5.562683053E+00  1.906127777E+02
5.567506475E+00  1.899818573E+02
5.572329897E+00  1.899656830E+02
5.577153319E+00  1.900107880E+02
5.581976742E+00  1.897144623E+02
5.586800164E+00  1.896686096E+02
5.591623586E+00  1.890182800E+02
5.596447008E+00  1.880339355E+02
5.601270430E+00  1.880585022E+02
5.606093852E+00  1.884812927E+02
5.610917275E+00  1.873832245E+02
5.615740697E+00  1.855794830E+02
5.620564119E+00  1.856716919E+02
5.625387541E+00  1.863591156E+02
5.630210963E+00  1.857855835E+02
5.635034385E+00  1.849236908E+02
5.639857807E+00  1.848125916E+02
5.644681230E+00  1.849615326E+02
5.649504652E+00  1.853195953E+02
5.654328074E+00  1.848769531E+02
5.659151496E+00  1.840670013E+02
5.663974918E+00  1.838354492E+02
5.668798340E+00  1.833849030E+02
5.673621763E+00  1.830962524E+02
5.678445185E+00  1.828018646E+02
5.683268607E+00  1.814663696E+02
5.688092029E+00  1.815551758E+02
5.692915451E+00  1.814896393E+02
5.697738873E+00  1.809565735E+02
5.702562296E+00  1.804374847E+02
5.707385718E+00  1.796298218E+02
5.712209140E+00  1.795575714E+02
5.717032562E+00  1.798008270E+02
5.721855984E+00  1.796319885E+02
5.726679406E+00  1.795453186E+02
5.731502829E+00  1.794480286E+02
5.736326251E+00  1.797299347E+02
5.741149673E+00  1.794510193E+02
5.745973095E+00  1.793650818E+02
5.750796517E+00  1.786969604E+02
5.755619939E+00  1.783930969E+02
5.760443361E+00  1.783765411E+02
5.765266784E+00  1.786869202E+02
5.770090206E+00  1.790261078E+02
5.774913628E+00  1.785825958E+02
5.779737050E+00  1.778957367E+02
5.784560472E+00  1.777425232E+02
5.789383894E+00  1.764783478E+02
5.794207317E+00  1.755741577E+02
5.799030739E+00  1.755650330E+02
5.803854161E+00  1.760094452E+02
5.808677583E+00  1.757995148E+02
5.813501005E+00  1.754488525E+02
5.818324427E+00  1.750728912E+02
5.823147850E+00  1.752237396E+02
5.827971272E+00  1.745038605E+02
5.832794694E+00  1.742207031E+02
5.837618116E+00  1.742670288E+02
5.842441538E+00  1.739833679E+02
5.847264960E+00  1.728977509E+02
5.852088383E+00  1.719951324E+02
5.856911805E+00  1.717607117E+02
5.861735227E+00  1.716108856E+02
5.866558649E+00  1.715777588E+02
5.871382071E+00  1.710993500E+02
5.876205493E+00  1.711039276E+02
5.881028916E+00  1.712382355E+02
5.885852338E+00  1.707151794E+02
5.890675760E+00  1.699202271E+02
5.895499182E+00  1.693638000E+02
5.900322604E+00  1.690582733E+02
5.905146026E+00  1.684850616E+02
5.909969448E+00  1.688370667E+02
5.914792871E+00  1.692955322E+02
5.919616293E+00  1.689357605E+02
5.924439715E+00  1.688473816E+02
5.929263137E+00  1.691678009E+02
5.934086559E+00  1.682631989E+02
5.938909981E+00  1.670344238E+02
5.943733404E+00  1.668236237E+02
5.948556826E+00  1.668320770E+02
5.953380248E+00  1.656719055E+02
5.958203670E+00  1.646549225E+02
5.963027092E+00  1.651581268E+02
5.967850514E+00  1.659625092E+02
5.972673937E+00  1.656049347E+02
5.977497359E+00  1.645980225E+02
5.982320781E+00  1.636715546E+02
5.987144203E+00  1.628865051E+02
5.991967625E+00  1.630139771E+02
5.996791047E+00  1.630881653E+02
6.001614470E+00  1.638269196E+02
6.006437892E+00  1.632675018E+02
6.011261314E+00  1.625158539E+02
6.016084736E+00  1.621213989E+02
6.020908158E+00  1.621696930E+02
6.025731580E+00  1.617695465E+02
6.030555003E+00  1.606118622E+02
6.035378425E+00  1.597560120E+02
6.040201847E+00  1.600102386E+02
6.045025269E+00  1.604821320E+02
6.049848691E+00  1.610908508E+02
6.054672113E+00  1.602283325E+02
6.059495535E+00  1.591037140E+02
6.064318958E+00  1.589417267E+02
6.069142380E+00  1.589695892E+02
6.073965802E+00  1.587725830E+02
6.078789224E+00  1.592195740E+02
6.083612646E+00  1.595846405E+02
6.088436068E+00  1.594065857E+02
6.093259491E+00  1.584128723E+02
6.098082913E+00  1.579873810E+02
6.102906335E+00  1.584986267E+02
6.107729757E+00  1.598167419E+02
6.112553179E+00  1.594390869E+02
6.117376601E+00  1.585460205E+02
6.122200024E+00  1.570667114E+02
6.127023446E+00  1.560266724E+02
6.131846868E+00  1.564635010E+02
6.136670290E+00  1.568171387E+02
6.141493712E+00  1.557618561E+02
6.146317134E+00  1.554752197E+02
6.151140557E+00  1.553695068E+02
6.155963979E+00  1.548099365E+02
6.160787401E+00  1.545697479E+02
6.165610823E+00  1.534748077E+02
6.170434245E+00  1.530247650E+02
6.175257667E+00  1.536523743E+02
6.180081090E+00  1.534927216E+02
6.184904512E+00  1.525898895E+02
6.189727934E+00  1.523175201E+02
6.194551356E+00  1.523054352E+02
6.199374778E+00  1.524492035E+02
6.204198200E+00  1.521757965E+02
6.209021622E+00  1.521048889E+02
6.213845045E+00  1.530686035E+02
6.218668467E+00  1.530558929E+02
6.223491889E+00  1.522288513E+02
6.228315311E+00  1.518800812E+02
6.233138733E+00  1.505340881E+02
6.237962155E+00  1.497517548E+02
6.242785578E+00  1.503360748E+02
6.247609000E+00  1.505675659E+02
6.252432422E+00  1.509891510E+02
6.257255844E+00  1.506067047E+02
6.262079266E+00  1.502673645E+02
6.266902688E+00  1.500744781E+02
6.271726111E+00  1.498694763E+02
6.276549533E+00  1.496164246E+02
6.281372955E+00  1.497621765E+02
6.286196377E+00  1.497977905E+02
6.291019799E+00  1.497085876E+02
6.295843221E+00  1.498928528E+02
6.300666644E+00  1.492030334E+02
6.305490066E+00  1.495229187E+02
6.310313488E+00  1.499454193E+02
6.315136910E+00  1.486539917E+02
6.319960332E+00  1.478151703E+02
6.324783754E+00  1.483130341E+02
6.329607177E+00  1.484265594E+02
6.334430599E+00  1.483703613E+02
6.339254021E+00  1.475361176E+02
6.344077443E+00  1.470775452E+02
6.348900865E+00  1.462449799E+02
6.353724287E+00  1.454061737E+02
6.358547709E+00  1.454445190E+02
6.363371132E+00  1.454546051E+02
6.368194554E+00  1.454912109E+02
6.373017976E+00  1.453562317E+02
6.377841398E+00  1.451669617E+02
6.382664820E+00  1.455784454E+02
6.387488242E+00  1.460866699E+02
6.392311665E+00  1.466547852E+02
6.397135087E+00  1.468625793E+02
6.401958509E+00  1.472305145E+02
6.406781931E+00  1.464567719E+02
6.411605353E+00  1.451326294E+02
6.416428775E+00  1.445951080E+02
6.421252198E+00  1.440054932E+02
6.426075620E+00  1.443258972E+02
6.430899042E+00  1.444701691E+02
6.435722464E+00  1.444460907E+02
6.440545886E+00  1.449526825E+02
6.445369308E+00  1.442988434E+02
6.450192731E+00  1.438121796E+02
6.455016153E+00  1.444420776E+02
6.459839575E+00  1.448715210E+02
6.464662997E+00  1.449588165E+02
6.469486419E+00  1.445478058E+02
6.474309841E+00  1.448286285E+02
6.479133264E+00  1.444141998E+02
6.483956686E+00  1.434711304E+02
6.488780108E+00  1.427120667E+02
6.493603530E+00  1.421675873E+02
6.498426952E+00  1.426131744E+02
6.503250374E+00  1.430259552E+02
6.508073796E+00  1.435816498E+02
6.512897219E+00  1.431773987E+02
6.517720641E+00  1.426384125E+02
6.522544063E+00  1.434217072E+02
6.527367485E+00  1.437686310E+02
6.532190907E+00  1.440049286E+02
6.537014329E+00  1.443726654E+02
6.541837752E+00  1.437445221E+02
6.546661174E+00  1.426740112E+02
6.551484596E+00  1.427216644E+02
6.556308018E+00  1.432761841E+02
6.561131440E+00  1.432697906E+02
6.565954862E+00  1.431288910E+02
6.570778285E+00  1.427592773E+02
6.575601707E+00  1.429364929E+02
6.580425129E+00  1.428867188E+02
6.585248551E+00  1.426864166E+02
6.590071973E+00  1.425110168E+02
6.594895395E+00  1.420100403E+02
6.599718818E+00  1.416112366E+02
6.604542240E+00  1.410985260E+02
6.609365662E+00  1.415077209E+02
6.614189084E+00  1.423948669E+02
6.619012506E+00  1.415947113E+02
6.623835928E+00  1.419997559E+02
6.628659350E+00  1.422530060E+02
6.633482773E+00  1.424272308E+02
6.638306195E+00  1.424617157E+02
6.643129617E+00  1.425532837E+02
6.647953039E+00  1.426587982E+02
6.652776461E+00  1.417074280E+02
6.657599883E+00  1.412851410E+02
6.662423306E+00  1.418316650E+02
6.667246728E+00  1.428826599E+02
6.672070150E+00  1.433414459E+02
6.676893572E+00  1.432484283E+02
6.681716994E+00  1.430502167E+02
6.686540416E+00  1.421551514E+02
6.691363839E+00  1.415175629E+02
6.696187261E+00  1.420240631E+02
6.701010683E+00  1.420939484E+02
6.705834105E+00  1.415546722E+02
6.710657527E+00  1.413392181E+02
6.715480949E+00  1.420181732E+02
6.720304372E+00  1.422637634E+02
6.725127794E+00  1.418052368E+02
6.729951216E+00  1.421182709E+02
6.734774638E+00  1.413134003E+02
6.739598060E+00  1.406145477E+02
6.744421482E+00  1.405729065E+02
6.749244905E+00  1.411535645E+02
6.754068327E+00  1.405141296E+02
6.758891749E+00  1.405332489E+02
6.763715171E+00  1.397935791E+02
6.768538593E+00  1.392206573E+02
6.773362015E+00  1.397747040E+02
6.778185437E+00  1.406869812E+02
6.783008860E+00  1.411349335E+02
6.787832282E+00  1.414617615E+02
6.792655704E+00  1.412651978E+02
6.797479126E+00  1.409913788E+02
6.802302548E+00  1.415274048E+02
6.807125970E+00  1.420589752E+02
6.811949393E+00  1.414119110E+02
6.816772815E+00  1.410973816E+02
6.821596237E+00  1.407050781E+02
6.826419659E+00  1.409057617E+02
6.831243081E+00  1.408988495E+02
6.836066503E+00  1.401576843E+02
6.840889926E+00  1.398403015E+02
6.845713348E+00  1.400582428E+02
6.850536770E+00  1.395951843E+02
6.855360192E+00  1.397496796E+02
6.860183614E+00  1.393081512E+02
6.865007036E+00  1.396491241E+02
6.869830459E+00  1.407689362E+02
6.874653881E+00  1.407581940E+02
6.879477303E+00  1.409782867E+02
6.884300725E+00  1.410726776E+02
6.889124147E+00  1.408049164E+02
6.893947569E+00  1.404656372E+02
6.898770992E+00  1.404253540E+02
6.903594414E+00  1.401920166E+02
6.908417836E+00  1.397182922E+02
6.913241258E+00  1.403227081E+02
6.918064680E+00  1.401663666E+02
6.922888102E+00  1.397489929E+02
6.927711524E+00  1.391446075E+02
6.932534947E+00  1.395509338E+02
6.937358369E+00  1.400416870E+02
6.942181791E+00  1.399715729E+02
6.947005213E+00  1.404753571E+02
6.951828635E+00  1.414652863E+02
6.956652057E+00  1.415361786E+02
6.961475480E+00  1.407016449E+02
6.966298902E+00  1.397765808E+02
6.971122324E+00  1.389486542E+02
6.975945746E+00  1.389854431E+02
6.980769168E+00  1.394756775E+02
6.985592590E+00  1.402974091E+02
6.990416013E+00  1.403312225E+02
6.995239435E+00  1.400967407E+02
7.000062857E+00  1.399796448E+02
7.004886279E+00  1.402636719E+02
7.009709701E+00  1.398990631E+02
7.014533123E+00  1.400287781E+02
7.019356546E+00  1.400449677E+02
7.024179968E+00  1.393519440E+02
7.029003390E+00  1.387197113E+02
7.033826812E+00  1.380598450E+02
7.038650234E+00  1.390856476E+02
7.043473656E+00  1.395047760E+02
7.048297079E+00  1.395036621E+02
7.053120501E+00  1.392197266E+02
7.057943923E+00  1.394387054E+02
7.062767345E+00  1.397835846E+02
7.067590767E+00  1.391239471E+02
7.072414189E+00  1.386322784E+02
7.077237611E+00  1.390276794E+02
7.082061034E+00  1.393009338E+02
7.086884456E+00  1.392283478E+02
7.091707878E+00  1.389584808E+02
7.096531300E+00  1.388139343E+02
7.101354722E+00  1.392278595E+02
7.106178144E+00  1.391413879E+02
7.111001567E+00  1.391447296E+02
7.115824989E+00  1.392764282E+02
7.120648411E+00  1.382556458E+02
7.125471833E+00  1.379732971E+02
7.130295255E+00  1.383251648E+02
7.135118677E+00  1.381136780E+02
7.139942100E+00  1.374466095E+02
7.144765522E+00  1.383917084E+02
7.149588944E+00  1.388067169E+02
7.154412366E+00  1.382306213E+02
7.159235788E+00  1.374338226E+02
7.164059210E+00  1.371458893E+02
7.168882633E+00  1.369696960E+02
7.173706055E+00  1.365429382E+02
7.178529477E+00  1.367280273E+02
7.183352899E+00  1.376838989E+02
7.188176321E+00  1.377376404E+02
7.192999743E+00  1.379388885E+02
7.197823166E+00  1.375968170E+02
7.202646588E+00  1.373608093E+02
7.207470010E+00  1.374421082E+02
7.212293432E+00  1.373286438E+02
7.217116854E+00  1.373583679E+02
7.221940276E+00  1.374628143E+02
7.226763698E+00  1.374383698E+02
7.231587121E+00  1.369642944E+02
7.236410543E+00  1.372155914E+02
7.241233965E+00  1.381960754E+02
7.246057387E+00  1.388014832E+02
7.250880809E+00  1.382913818E+02
7.255704231E+00  1.375530853E+02
7.260527654E+00  1.373520203E+02
7.265351076E+00  1.372340546E+02
7.270174498E+00  1.373247986E+02
7.274997920E+00  1.366892548E+02
7.279821342E+00  1.358266907E+02
7.284644764E+00  1.358163147E+02
7.289468187E+00  1.360959473E+02
7.294291609E+00  1.361843567E+02
7.299115031E+00  1.360897827E+02
7.303938453E+00  1.359600983E+02
7.308761875E+00  1.359079437E+02
7.313585297E+00  1.363791199E+02
7.318408720E+00  1.365294952E+02
7.323232142E+00  1.368531647E+02
7.328055564E+00  1.361851044E+02
7.332878986E+00  1.359606781E+02
7.337702408E+00  1.360441284E+02
7.342525830E+00  1.361150208E+02
7.347349253E+00  1.360456848E+02
7.352172675E+00  1.355299377E+02
7.356996097E+00  1.350327911E+02
7.361819519E+00  1.351442413E+02
7.366642941E+00  1.359751434E+02
7.371466363E+00  1.368195648E+02
7.376289785E+00  1.364844055E+02
7.381113208E+00  1.361465454E+02
7.385936630E+00  1.361917572E+02
7.390760052E+00  1.365000305E+02
7.395583474E+00  1.362760773E+02
7.400406896E+00  1.357877655E+02
7.405230318E+00  1.361443787E+02
7.410053741E+00  1.359101105E+02
7.414877163E+00  1.347953949E+02
7.419700585E+00  1.344615021E+02
7.424524007E+00  1.349272766E+02
7.429347429E+00  1.351386871E+02
7.434170851E+00  1.347936859E+02
7.438994274E+00  1.350015564E+02
7.443817696E+00  1.347803497E+02
7.448641118E+00  1.349651947E+02
7.453464540E+00  1.352084351E+02
7.458287962E+00  1.349328308E+02
7.463111384E+00  1.353138885E+02
7.467934807E+00  1.355579987E+02
7.472758229E+00  1.359748993E+02
7.477581651E+00  1.352416534E+02
7.482405073E+00  1.357549591E+02
7.487228495E+00  1.361116333E+02
7.492051917E+00  1.360935211E+02
7.496875339E+00  1.359886322E+02
7.501698762E+00  1.357213440E+02
7.506522184E+00  1.359056244E+02
7.511345606E+00  1.357265625E+02
7.516169028E+00  1.347538910E+02
7.520992450E+00  1.350808868E+02
7.525815872E+00  1.354908752E+02
7.530639295E+00  1.358957672E+02
7.535462717E+00  1.357516174E+02
7.540286139E+00  1.356360931E+02
7.545109561E+00  1.355940857E+02
7.549932983E+00  1.355328064E+02
7.554756405E+00  1.360196075E+02
7.559579828E+00  1.359106598E+02
7.564403250E+00  1.354783630E+02
7.569226672E+00  1.352376556E+02
7.574050094E+00  1.349787750E+02
7.578873516E+00  1.351358643E+02
7.583696938E+00  1.357543945E+02
7.588520361E+00  1.361231842E+02
7.593343783E+00  1.357305756E+02
7.598167205E+00  1.352327118E+02
7.602990627E+00  1.344562225E+02
7.607814049E+00  1.337154846E+02
7.612637471E+00  1.341208496E+02
7.617460894E+00  1.340557861E+02
7.622284316E+00  1.344997253E+02
7.627107738E+00  1.353359833E+02
7.631931160E+00  1.356950226E+02
7.636754582E+00  1.353374634E+02
7.641578004E+00  1.351001434E+02
7.646401426E+00  1.347376556E+02
7.651224849E+00  1.339789429E+02
7.656048271E+00  1.342831421E+02
7.660871693E+00  1.337769623E+02
7.665695115E+00  1.339935760E+02
7.670518537E+00  1.348293610E+02
7.675341959E+00  1.351585846E+02
7.680165382E+00  1.354469604E+02
7.684988804E+00  1.357118073E+02
7.689812226E+00  1.355415955E+02
7.694635648E+00  1.356264648E+02
7.699459070E+00  1.361366272E+02
7.704282492E+00  1.369228973E+02
7.709105915E+00  1.376626892E+02
7.713929337E+00  1.370298309E+02
7.718752759E+00  1.361302795E+02
7.723576181E+00  1.354930420E+02
7.728399603E+00  1.355800323E+02
7.733223025E+00  1.364849243E+02
7.738046448E+00  1.364282074E+02
7.742869870E+00  1.352205505E+02
7.747693292E+00  1.349414978E+02
7.752516714E+00  1.350152435E+02
7.757340136E+00  1.351185455E+02
7.762163558E+00  1.359370422E+02
7.766986981E+00  1.368797150E+02
7.771810403E+00  1.364754486E+02
7.776633825E+00  1.359477997E+02
7.781457247E+00  1.351867676E+02
7.786280669E+00  1.353034515E+02
7.791104091E+00  1.357011566E+02
7.795927513E+00  1.361030884E+02
7.800750936E+00  1.358142242E+02
7.805574358E+00  1.364442596E+02
7.810397780E+00  1.360926056E+02
7.815221202E+00  1.353482056E+02
7.820044624E+00  1.355606842E+02
7.824868046E+00  1.348932190E+02
7.829691469E+00  1.349814758E+02
7.834514891E+00  1.351062469E+02
7.839338313E+00  1.342836151E+02
7.844161735E+00  1.344028625E+02
7.848985157E+00  1.348315735E+02
7.853808579E+00  1.359121094E+02
7.858632002E+00  1.360551453E+02
7.863455424E+00  1.357251892E+02
7.868278846E+00  1.354423523E+02
7.873102268E+00  1.348111115E+02
7.877925690E+00  1.348962555E+02
7.882749112E+00  1.357555542E+02
7.887572535E+00  1.369533844E+02
7.892395957E+00  1.365310974E+02
7.897219379E+00  1.355630646E+02
7.902042801E+00  1.362412262E+02
7.906866223E+00  1.371816254E+02
7.911689645E+00  1.368472290E+02
7.916513068E+00  1.357727356E+02
7.921336490E+00  1.349875336E+02
7.926159912E+00  1.354212189E+02
7.930983334E+00  1.356287537E+02
7.935806756E+00  1.357797089E+02
7.940630178E+00  1.353766479E+02
7.945453600E+00  1.353056335E+02
7.950277023E+00  1.355036469E+02
7.955100445E+00  1.353307648E+02
7.959923867E+00  1.354024506E+02
7.964747289E+00  1.347150116E+02
7.969570711E+00  1.336645508E+02
7.974394133E+00  1.339740295E+02
7.979217556E+00  1.349994354E+02
7.984040978E+00  1.359762878E+02
7.988864400E+00  1.360606537E+02
7.993687822E+00  1.358844757E+02
7.998511244E+00  1.357499695E+02
8.003334666E+00  1.354749908E+02
8.008158089E+00  1.348451080E+02
8.012981511E+00  1.346710663E+02
8.017804933E+00  1.349176483E+02
8.022628355E+00  1.344066162E+02
8.027451777E+00  1.342227325E+02
8.032275199E+00  1.352284546E+02
8.037098622E+00  1.354209137E+02
8.041922044E+00  1.357639313E+02
8.046745466E+00  1.354864807E+02
8.051568888E+00  1.355119019E+02
8.056392310E+00  1.361512604E+02
8.061215732E+00  1.368275757E+02
8.066039155E+00  1.362036438E+02
8.070862577E+00  1.360085144E+02
8.075685999E+00  1.354625702E+02
8.080509421E+00  1.353081970E+02
8.085332843E+00  1.354932861E+02
8.090156265E+00  1.357682800E+02
8.094979687E+00  1.357661133E+02
8.099803110E+00  1.361279297E+02
8.104626532E+00  1.375399933E+02
8.109449954E+00  1.376727753E+02
8.114273376E+00  1.366035461E+02
8.119096798E+00  1.362184601E+02
8.123920220E+00  1.368674927E+02
8.128743643E+00  1.364169617E+02
8.133567065E+00  1.365275269E+02
8.138390487E+00  1.362421570E+02
8.143213909E+00  1.364444885E+02
8.148037331E+00  1.352702484E+02
8.152860753E+00  1.348213196E+02
8.157684176E+00  1.349819489E+02
8.162507598E+00  1.356417847E+02
8.167331020E+00  1.362321930E+02
8.172154442E+00  1.360929565E+02
8.176977864E+00  1.361147919E+02
8.181801286E+00  1.359669342E+02
8.186624709E+00  1.356717987E+02
8.191448131E+00  1.361346588E+02
8.196271553E+00  1.366712341E+02
8.201094975E+00  1.370810089E+02
8.205918397E+00  1.368111572E+02
8.210741819E+00  1.370657349E+02
8.215565242E+00  1.373672485E+02
8.220388664E+00  1.375036163E+02
8.225212086E+00  1.374437714E+02
8.230035508E+00  1.373946075E+02
8.234858930E+00  1.369903259E+02
8.239682352E+00  1.365366058E+02
8.244505774E+00  1.371370239E+02
8.249329197E+00  1.380728760E+02
8.254152619E+00  1.379879913E+02
8.258976041E+00  1.375885620E+02
8.263799463E+00  1.372423706E+02
8.268622885E+00  1.364046021E+02
8.273446307E+00  1.362386322E+02
8.278269730E+00  1.364925079E+02
8.283093152E+00  1.377242279E+02
8.287916574E+00  1.371961823E+02
8.292739996E+00  1.367530060E+02
8.297563418E+00  1.376282501E+02
8.302386840E+00  1.379039154E+02
8.307210263E+00  1.384734039E+02
8.312033685E+00  1.389772797E+02
8.316857107E+00  1.393331909E+02
8.321680529E+00  1.389834137E+02
8.326503951E+00  1.385256500E+02
8.331327373E+00  1.380492401E+02
8.336150796E+00  1.383233490E+02
8.340974218E+00  1.397605133E+02
8.345797640E+00  1.400814667E+02
8.350621062E+00  1.395204163E+02
8.355444484E+00  1.391503754E+02
8.360267906E+00  1.393652344E+02
8.365091328E+00  1.394218292E+02
8.369914751E+00  1.393913574E+02
8.374738173E+00  1.389822998E+02
8.379561595E+00  1.389312897E+02
8.384385017E+00  1.393771210E+02
8.389208439E+00  1.399062347E+02
8.394031861E+00  1.395985870E+02
8.398855284E+00  1.393252716E+02
8.403678706E+00  1.388901825E+02
8.408502128E+00  1.389761047E+02
8.413325550E+00  1.398326416E+02
8.418148972E+00  1.397161407E+02
8.422972394E+00  1.398359833E+02
8.427795817E+00  1.398812103E+02
8.432619239E+00  1.394388123E+02
8.437442661E+00  1.391664734E+02
8.442266083E+00  1.394524994E+02
8.447089505E+00  1.397199554E+02
8.451912927E+00  1.403851318E+02
8.456736350E+00  1.407598267E+02
8.461559772E+00  1.407562408E+02
8.466383194E+00  1.403699188E+02
8.471206616E+00  1.399949341E+02
8.476030038E+00  1.400883942E+02
8.480853460E+00  1.406496429E+02
8.485676883E+00  1.413166656E+02
8.490500305E+00  1.411963348E+02
8.495323727E+00  1.412519836E+02
8.500147149E+00  1.411117249E+02
8.504970571E+00  1.405050049E+02
8.509793993E+00  1.399810181E+02
8.514617415E+00  1.413212891E+02
8.519440838E+00  1.418940735E+02
8.524264260E+00  1.418973541E+02
8.529087682E+00  1.419356537E+02
8.533911104E+00  1.408731232E+02
8.538734526E+00  1.409481049E+02
8.543557948E+00  1.416342773E+02
8.548381371E+00  1.419322052E+02
8.553204793E+00  1.426773529E+02
8.558028215E+00  1.424550476E+02
8.562851637E+00  1.421065826E+02
8.567675059E+00  1.426274872E+02
8.572498481E+00  1.428255615E+02
8.577321904E+00  1.430634308E+02
8.582145326E+00  1.430140381E+02
8.586968748E+00  1.433754578E+02
8.591792170E+00  1.438854980E+02
8.596615592E+00  1.428787842E+02
8.601439014E+00  1.419112549E+02
8.606262437E+00  1.428676147E+02
8.611085859E+00  1.436790009E+02
8.615909281E+00  1.436143036E+02
8.620732703E+00  1.434082184E+02
8.625556125E+00  1.433032532E+02
8.630379547E+00  1.431425476E+02
8.635202970E+00  1.431736603E+02
8.640026392E+00  1.434785004E+02
8.644849814E+00  1.433240662E+02
8.649673236E+00  1.426315918E+02
8.654496658E+00  1.425874176E+02
8.659320080E+00  1.423686523E+02
8.664143502E+00  1.422132874E+02
8.668966925E+00  1.421665344E+02
8.673790347E+00  1.424246826E+02
8.678613769E+00  1.428657532E+02
8.683437191E+00  1.434134369E+02
8.688260613E+00  1.430259094E+02
8.693084035E+00  1.436045990E+02
8.697907458E+00  1.439989777E+02
8.702730880E+00  1.437821045E+02
8.707554302E+00  1.431346436E+02
8.712377724E+00  1.427415161E+02
8.717201146E+00  1.429909210E+02
8.722024568E+00  1.425893097E+02
8.726847991E+00  1.426180420E+02
8.731671413E+00  1.435589447E+02
8.736494835E+00  1.437104492E+02
8.741318257E+00  1.434257965E+02
8.746141679E+00  1.433222656E+02
8.750965101E+00  1.434078522E+02
8.755788524E+00  1.434468842E+02
8.760611946E+00  1.433716583E+02
8.765435368E+00  1.432259216E+02
8.770258790E+00  1.434741669E+02
8.775082212E+00  1.439504089E+02
8.779905634E+00  1.443515625E+02
8.784729057E+00  1.439371643E+02
8.789552479E+00  1.440871277E+02
8.794375901E+00  1.437680969E+02
8.799199323E+00  1.435676727E+02
8.804022745E+00  1.437966766E+02
8.808846167E+00  1.442891388E+02
8.813669589E+00  1.438794403E+02
8.818493012E+00  1.445264740E+02
8.823316434E+00  1.451953430E+02
8.828139856E+00  1.461551514E+02
8.832963278E+00  1.459832764E+02
8.837786700E+00  1.463983612E+02
8.842610122E+00  1.464656067E+02
8.847433545E+00  1.460070343E+02
8.852256967E+00  1.452052765E+02
8.857080389E+00  1.449686432E+02
8.861903811E+00  1.449225616E+02
8.866727233E+00  1.452108154E+02
8.871550655E+00  1.458025360E+02
8.876374078E+00  1.464527130E+02
8.881197500E+00  1.466115875E+02
8.886020922E+00  1.465436096E+02
8.890844344E+00  1.466652985E+02
8.895667766E+00  1.463031921E+02
8.900491188E+00  1.460592499E+02
8.905314611E+00  1.466892548E+02
8.910138033E+00  1.467601776E+02
8.914961455E+00  1.467443695E+02
8.919784877E+00  1.469294586E+02
8.924608299E+00  1.468359528E+02
8.929431721E+00  1.467768097E+02
8.934255144E+00  1.472606659E+02
8.939078566E+00  1.479437256E+02
8.943901988E+00  1.478520508E+02
8.948725410E+00  1.475462036E+02
8.953548832E+00  1.474906311E+02
8.958372254E+00  1.475111542E+02
8.963195676E+00  1.477904358E+02
8.968019099E+00  1.483311615E+02
8.972842521E+00  1.474461517E+02
8.977665943E+00  1.482634583E+02
8.982489365E+00  1.494362030E+02
8.987312787E+00  1.499904022E+02
8.992136209E+00  1.496280518E+02
8.996959632E+00  1.495099640E+02
9.001783054E+00  1.493458252E+02
9.006606476E+00  1.484527435E+02
9.011429898E+00  1.486108246E+02
9.016253320E+00  1.496356049E+02
9.021076742E+00  1.492427521E+02
9.025900165E+00  1.491611481E+02
9.030723587E+00  1.493066406E+02
9.035547009E+00  1.492465210E+02
9.040370431E+00  1.495743103E+02
9.045193853E+00  1.497060089E+02
9.050017275E+00  1.498297882E+02
9.054840698E+00  1.502236786E+02
9.059664120E+00  1.502735443E+02
9.064487542E+00  1.498034515E+02
9.069310964E+00  1.502073975E+02
9.074134386E+00  1.504996796E+02
9.078957808E+00  1.503427124E+02
9.083781230E+00  1.501140747E+02
9.088604653E+00  1.508087158E+02
9.093428075E+00  1.512647400E+02
9.098251497E+00  1.506133728E+02
9.103074919E+00  1.499328156E+02
9.107898341E+00  1.492530975E+02
9.112721763E+00  1.499477234E+02
9.117545186E+00  1.510469513E+02
9.122368608E+00  1.520432434E+02
9.127192030E+00  1.512563019E+02
9.132015452E+00  1.507742310E+02
9.136838874E+00  1.503427429E+02
9.141662296E+00  1.507804108E+02
9.146485719E+00  1.518970184E+02
9.151309141E+00  1.518723907E+02
9.156132563E+00  1.517747955E+02
9.160955985E+00  1.521918640E+02
9.165779407E+00  1.530147400E+02
9.170602829E+00  1.526932831E+02
9.175426252E+00  1.528502045E+02
9.180249674E+00  1.522137299E+02
9.185073096E+00  1.518898163E+02
9.189896518E+00  1.516774902E+02
9.194719940E+00  1.522968597E+02
9.199543362E+00  1.515232391E+02
9.204366785E+00  1.516529083E+02
9.209190207E+00  1.525226288E+02
9.214013629E+00  1.525086517E+02
9.218837051E+00  1.529547424E+02
9.223660473E+00  1.531619873E+02
9.228483895E+00  1.526096039E+02
9.233307317E+00  1.523148651E+02
9.238130740E+00  1.522070618E+02
9.242954162E+00  1.524089050E+02
9.247777584E+00  1.520992279E+02
9.252601006E+00  1.525594635E+02
9.257424428E+00  1.525893555E+02
9.262247850E+00  1.528284454E+02
9.267071273E+00  1.531392822E+02
9.271894695E+00  1.528055878E+02
9.276718117E+00  1.525299225E+02
9.281541539E+00  1.530815887E+02
9.286364961E+00  1.532390289E+02
9.291188383E+00  1.533786163E+02
9.296011806E+00  1.534765320E+02
9.300835228E+00  1.534008179E+02
9.305658650E+00  1.535569153E+02
9.310482072E+00  1.531903229E+02
9.315305494E+00  1.528092957E+02
9.320128916E+00  1.530329132E+02
9.324952339E+00  1.534037170E+02
9.329775761E+00  1.534034882E+02
9.334599183E+00  1.544389191E+02
9.339422605E+00  1.554034119E+02
9.344246027E+00  1.555313568E+02
9.349069449E+00  1.555883942E+02
9.353892872E+00  1.548662262E+02
9.358716294E+00  1.543206482E+02
9.363539716E+00  1.545028992E+02
9.368363138E+00  1.546859283E+02
9.373186560E+00  1.549524994E+02
9.378009982E+00  1.554282379E+02
9.382833404E+00  1.545856171E+02
9.387656827E+00  1.539281158E+02
9.392480249E+00  1.536734772E+02
9.397303671E+00  1.547913208E+02
9.402127093E+00  1.555551605E+02
9.406950515E+00  1.558759766E+02
9.411773937E+00  1.556358490E+02
9.416597360E+00  1.551257935E+02
9.421420782E+00  1.538533173E+02
9.426244204E+00  1.539695282E+02
9.431067626E+00  1.542723999E+02
9.435891048E+00  1.539765625E+02
9.440714470E+00  1.548709259E+02
9.445537893E+00  1.550907135E+02
9.450361315E+00  1.552967682E+02
9.455184737E+00  1.551450500E+02
9.460008159E+00  1.558438263E+02
9.464831581E+00  1.560721741E+02
9.469655003E+00  1.560207825E+02
9.474478426E+00  1.564193726E+02
9.479301848E+00  1.560644073E+02
9.484125270E+00  1.563865662E+02
9.488948692E+00  1.563661652E+02
9.493772114E+00  1.555969238E+02
9.498595536E+00  1.545516205E+02
9.503418959E+00  1.546634827E+02
9.508242381E+00  1.545642700E+02
9.513065803E+00  1.548699188E+02
9.517889225E+00  1.549530182E+02
9.522712647E+00  1.551060333E+02
9.527536069E+00  1.561198425E+02
9.532359491E+00  1.563187256E+02
9.537182914E+00  1.560108643E+02
9.542006336E+00  1.560290070E+02
9.546829758E+00  1.563115387E+02
9.551653180E+00  1.560219116E+02
9.556476602E+00  1.556849518E+02
9.561300024E+00  1.554279785E+02
9.566123447E+00  1.555134888E+02
9.570946869E+00  1.557928925E+02
9.575770291E+00  1.555621033E+02
9.580593713E+00  1.561647491E+02
9.585417135E+00  1.565444641E+02
9.590240557E+00  1.557234344E+02
9.595063980E+00  1.557133789E+02
9.599887402E+00  1.557140961E+02
9.604710824E+00  1.555964813E+02
9.609534246E+00  1.561772461E+02
9.614357668E+00  1.575513763E+02
9.619181090E+00  1.582863617E+02
9.624004513E+00  1.571356049E+02
9.628827935E+00  1.562439575E+02
9.633651357E+00  1.564886780E+02
9.638474779E+00  1.560444946E+02
9.643298201E+00  1.565430145E+02
9.648121623E+00  1.568018799E+02
9.652945046E+00  1.574991455E+02
9.657768468E+00  1.574389496E+02
9.662591890E+00  1.571360016E+02
9.667415312E+00  1.572564392E+02
9.672238734E+00  1.565303955E+02
9.677062156E+00  1.565399017E+02
9.681885578E+00  1.560166931E+02
9.686709001E+00  1.561927948E+02
9.691532423E+00  1.573879242E+02
9.696355845E+00  1.569660645E+02
9.701179267E+00  1.563659210E+02
9.706002689E+00  1.564927368E+02
9.710826111E+00  1.561629791E+02
9.715649534E+00  1.570568085E+02
9.720472956E+00  1.578599396E+02
9.725296378E+00  1.579515991E+02
9.730119800E+00  1.577246704E+02
9.734943222E+00  1.576174622E+02
9.739766644E+00  1.573397217E+02
9.744590067E+00  1.566022644E+02
9.749413489E+00  1.562831268E+02
9.754236911E+00  1.566871796E+02
9.759060333E+00  1.577495422E+02
9.763883755E+00  1.586980591E+02
9.768707177E+00  1.589544067E+02
9.773530600E+00  1.586340332E+02
9.778354022E+00  1.581523743E+02
9.783177444E+00  1.576772919E+02
9.788000866E+00  1.580813599E+02
9.792824288E+00  1.591598663E+02
9.797647710E+00  1.594266663E+02
9.802471133E+00  1.587043610E+02
9.807294555E+00  1.584080811E+02
9.812117977E+00  1.589753723E+02
9.816941399E+00  1.587532349E+02
9.821764821E+00  1.589452057E+02
9.826588243E+00  1.593819733E+02
9.831411665E+00  1.592329254E+02
9.836235088E+00  1.588655090E+02
9.841058510E+00  1.586673279E+02
9.845881932E+00  1.587330322E+02
9.850705354E+00  1.585546875E+02
9.855528776E+00  1.588135986E+02
9.860352198E+00  1.592426300E+02
9.865175621E+00  1.594015656E+02
9.869999043E+00  1.592436218E+02
9.874822465E+00  1.591635742E+02
9.879645887E+00  1.596177216E+02
9.884469309E+00  1.598752747E+02
9.889292731E+00  1.600119171E+02
9.894116154E+00  1.606752625E+02
9.898939576E+00  1.604889679E+02
9.903762998E+00  1.600621338E+02
9.908586420E+00  1.596433258E+02
9.913409842E+00  1.598287048E+02
9.918233264E+00  1.597639465E+02
9.923056687E+00  1.592775574E+02
9.927880109E+00  1.583783875E+02
9.932703531E+00  1.602804871E+02
9.937526953E+00  1.600841370E+02
9.942350375E+00  1.596167908E+02
9.947173797E+00  1.601421967E+02
9.951997219E+00  1.608853302E+02
9.956820642E+00  1.611797943E+02
9.961644064E+00  1.614595795E+02
9.966467486E+00  1.618613281E+02
9.971290908E+00  1.613066711E+02
9.976114330E+00  1.619426270E+02
9.980937752E+00  1.619362488E+02
9.985761175E+00  1.614862366E+02
9.990584597E+00  1.617148590E+02
9.995408019E+00  1.616102600E+02
1.000023144E+01  1.617440033E+02
1.000505486E+01  1.622480927E+02
1.000987829E+01  1.618187866E+02
1.001470171E+01  1.608070068E+02
1.001952513E+01  1.609614563E+02
1.002434855E+01  1.609559479E+02
1.002917197E+01  1.619985352E+02
1.003399540E+01  1.620999146E+02
1.003881882E+01  1.615693359E+02
1.004364224E+01  1.610621490E+02
1.004846566E+01  1.619010162E+02
1.005328908E+01  1.616765594E+02
1.005811251E+01  1.626838074E+02
1.006293593E+01  1.627619324E+02
1.006775935E+01  1.624321594E+02
1.007258277E+01  1.621011810E+02
1.007740620E+01  1.620063934E+02
1.008222962E+01  1.616890259E+02
1.008705304E+01  1.613118286E+02
1.009187646E+01  1.620030670E+02
1.009669988E+01  1.623349762E+02
1.010152331E+01  1.634742737E+02
1.010634673E+01  1.639667969E+02
1.011117015E+01  1.635959625E+02
1.011599357E+01  1.626636658E+02
1.012081700E+01  1.622426910E+02
1.012564042E+01  1.622614136E+02
1.013046384E+01  1.632193909E+02
1.013528726E+01  1.638014832E+02
1.014011068E+01  1.633774109E+02
1.014493411E+01  1.636036835E+02
1.014975753E+01  1.632651825E+02
1.015458095E+01  1.637855682E+02
1.015940437E+01  1.640664978E+02
1.016422779E+01  1.642402344E+02
1.016905122E+01  1.644343109E+02
1.017387464E+01  1.648246155E+02
1.017869806E+01  1.642049103E+02
1.018352148E+01  1.642215881E+02
1.018834491E+01  1.644799194E+02
1.019316833E+01  1.649765320E+02
1.019799175E+01  1.647569427E+02
1.020281517E+01  1.650672150E+02
1.020763859E+01  1.647573547E+02
1.021246202E+01  1.658563385E+02
1.021728544E+01  1.654306641E+02
1.022210886E+01  1.662675018E+02
1.022693228E+01  1.663925629E+02
1.023175570E+01  1.647188568E+02
1.023657913E+01  1.652932892E+02
1.024140255E+01  1.650872192E+02
1.024622597E+01  1.636255188E+02
1.025104939E+01  1.631911011E+02
1.025587282E+01  1.639802704E+02
1.026069624E+01  1.652151489E+02
1.026551966E+01  1.647870789E+02
1.027034308E+01  1.636448212E+02
1.027516650E+01  1.641167297E+02
1.027998993E+01  1.650636597E+02
1.028481335E+01  1.653734589E+02
1.028963677E+01  1.649548950E+02
1.029446019E+01  1.646794891E+02
1.029928362E+01  1.644074707E+02
1.030410704E+01  1.652914734E+02
1.030893046E+01  1.653235168E+02
1.031375388E+01  1.651045990E+02
1.031857730E+01  1.640651093E+02
1.032340073E+01  1.636875916E+02
1.032822415E+01  1.645084076E+02
1.033304757E+01  1.652498322E+02
1.033787099E+01  1.648290558E+02
1.034269441E+01  1.655979767E+02
1.034751784E+01  1.658756256E+02
1.035234126E+01  1.652686310E+02
1.035716468E+01  1.652784119E+02
1.036198810E+01  1.654959259E+02
1.036681153E+01  1.659817047E+02
1.037163495E+01  1.652517853E+02
1.037645837E+01  1.656255646E+02
1.038128179E+01  1.647084808E+02
1.038610521E+01  1.645603027E+02
1.039092864E+01  1.650063019E+02
1.039575206E+01  1.652787323E+02
1.040057548E+01  1.653928223E+02
1.040539890E+01  1.660083618E+02
1.041022232E+01  1.652557373E+02
1.041504575E+01  1.655567017E+02
1.041986917E+01  1.664787903E+02
1.042469259E+01  1.661422424E+02
1.042951601E+01  1.657162933E+02
1.043433944E+01  1.665576324E+02
1.043916286E+01  1.662254028E+02
1.044398628E+01  1.661577759E+02
1.044880970E+01  1.665335236E+02
1.045363312E+01  1.661790314E+02
1.045845655E+01  1.662256165E+02
1.046327997E+01  1.666445923E+02
1.046810339E+01  1.673558044E+02
1.047292681E+01  1.665162506E+02
1.047775024E+01  1.671548004E+02
1.048257366E+01  1.671277161E+02
1.048739708E+01  1.671877899E+02
1.049222050E+01  1.674143677E+02
1.049704392E+01  1.673472443E+02
1.050186735E+01  1.670356445E+02
1.050669077E+01  1.676500092E+02
1.051151419E+01  1.670770111E+02
1.051633761E+01  1.670077515E+02
1.052116103E+01  1.663351135E+02
1.052598446E+01  1.661926727E+02
1.053080788E+01  1.675002899E+02
1.053563130E+01  1.675200500E+02
1.054045472E+01  1.670895844E+02
1.054527815E+01  1.676497498E+02
1.055010157E+01  1.682703705E+02
1.055492499E+01  1.680407562E+02
1.055974841E+01  1.675604706E+02
1.056457183E+01  1.685638733E+02
1.056939526E+01  1.690237579E+02
1.057421868E+01  1.692027893E+02
1.057904210E+01  1.690023193E+02
1.058386552E+01  1.692847137E+02
1.058868894E+01  1.689279480E+02
1.059351237E+01  1.686836090E+02
1.059833579E+01  1.679853516E+02
1.060315921E+01  1.686460114E+02
1.060798263E+01  1.684482727E+02
1.061280606E+01  1.695899658E+02
1.061762948E+01  1.693937836E+02
1.062245290E+01  1.687895203E+02
1.062727632E+01  1.677258911E+02
1.063209974E+01  1.683546295E+02
1.063692317E+01  1.695470428E+02
1.064174659E+01  1.700353851E+02
1.064657001E+01  1.690351410E+02
1.065139343E+01  1.693706970E+02
1.065621686E+01  1.692853546E+02
1.066104028E+01  1.692015839E+02
1.066586370E+01  1.693139801E+02
1.067068712E+01  1.693085632E+02
1.067551054E+01  1.698493652E+02
1.068033397E+01  1.699858398E+02
1.068515739E+01  1.690729370E+02
1.068998081E+01  1.695894318E+02
1.069480423E+01  1.709748230E+02
1.069962765E+01  1.717153778E+02
1.070445108E+01  1.711638641E+02
1.070927450E+01  1.708603516E+02
1.071409792E+01  1.715460358E+02
1.071892134E+01  1.725462341E+02
1.072374477E+01  1.727031708E+02
1.072856819E+01  1.726753387E+02
1.073339161E+01  1.726448059E+02
1.073821503E+01  1.731282806E+02
1.074303845E+01  1.723363037E+02
1.074786188E+01  1.722294159E+02
1.075268530E+01  1.725234375E+02
1.075750872E+01  1.734295807E+02
1.076233214E+01  1.739188538E+02
1.076715556E+01  1.734899445E+02
1.077197899E+01  1.730571136E+02
1.077680241E+01  1.729554596E+02
1.078162583E+01  1.729560242E+02
1.078644925E+01  1.722961273E+02
1.079127268E+01  1.723986053E+02
1.079609610E+01  1.728709412E+02
1.080091952E+01  1.730925293E+02
1.080574294E+01  1.734806519E+02
1.081056636E+01  1.729992981E+02
1.081538979E+01  1.729176941E+02
1.082021321E+01  1.731605835E+02
1.082503663E+01  1.726470642E+02
1.082986005E+01  1.724386902E+02
1.083468347E+01  1.726998444E+02
1.083950690E+01  1.729764709E+02
1.084433032E+01  1.730325165E+02
1.084915374E+01  1.743694153E+02
1.085397716E+01  1.742151947E+02
1.085880059E+01  1.727087097E+02
1.086362401E+01  1.713296204E+02
1.086844743E+01  1.704642181E+02
1.087327085E+01  1.704767914E+02
1.087809427E+01  1.703941193E+02
1.088291770E+01  1.700651703E+02
1.088774112E+01  1.712601166E+02
1.089256454E+01  1.711501465E+02
1.089738796E+01  1.702608490E+02
1.090221139E+01  1.709572296E+02
1.090703481E+01  1.702666473E+02
1.091185823E+01  1.698962860E+02
1.091668165E+01  1.704879761E+02
1.092150507E+01  1.701648254E+02
1.092632850E+01  1.690798950E+02
1.093115192E+01  1.687452545E+02
1.093597534E+01  1.654148407E+02
1.094079876E+01  1.593154755E+02
1.094562218E+01  1.535746918E+02
1.095044561E+01  1.517982178E+02
1.095526903E+01  1.483262024E+02
1.096009245E+01  8.888731384E+01
