9.171000021457672569e-01 2.510916323740169525e+10
9.513000064373017262e-01 2.557326888850338745e+10
9.855000107288361955e-01 2.547405806429471207e+10
1.019700015020370554e+00 2.536011133560900879e+10
1.053900019311905023e+00 2.544514353264962769e+10
1.088100023603439492e+00 2.536172506457259369e+10
1.122300027894973740e+00 2.528438825721987915e+10
1.156500032186508209e+00 2.516389347201389694e+10
1.190700036478042678e+00 2.508298449574435425e+10
1.224900040769577148e+00 2.513971552426920700e+10
1.259100045061111617e+00 2.502108598124924088e+10
1.293300049352645864e+00 2.528538127850814438e+10
1.327500053644180333e+00 2.532866408503157425e+10
1.361700057935714803e+00 2.528072813532497787e+10
1.395900062227249272e+00 2.526542711862844849e+10
1.430100066518783741e+00 2.515840509362445831e+10
1.464300070810318211e+00 2.483168092479111481e+10
1.498500075101852680e+00 2.439438447827562714e+10
1.532700079393387149e+00 2.387186597977484894e+10
1.566900083684921396e+00 2.320201195393945312e+10
1.601100087976456088e+00 2.241991806569577026e+10
1.635300092267990557e+00 2.154080258616731262e+10
1.669500096559524582e+00 2.070687458947898865e+10
1.703700100851059052e+00 1.999246652029808807e+10
1.737900105142593521e+00 1.917932790158793259e+10
1.772100109434127990e+00 1.852649659976145554e+10
1.806300113725662460e+00 1.789696163334480286e+10
1.840500118017196485e+00 1.708113993497408867e+10
1.874700122308730954e+00 1.643196767661412811e+10
1.908900126600265423e+00 1.586852678025164795e+10
1.943100130891799893e+00 1.534683683995648956e+10
1.977300135183334362e+00 1.482482857586094856e+10
2.011500139474868831e+00 1.436290385936204720e+10
2.045700143766403301e+00 1.395954168403724098e+10
2.079900148057937770e+00 1.357816584409169197e+10
2.114100152349472239e+00 1.320958724031237030e+10
2.148300156641006708e+00 1.288212572485017204e+10
2.182500160932541178e+00 1.258257431831949425e+10
2.216700165224075203e+00 1.221598855234967422e+10
2.250900169515609672e+00 1.194934847216362762e+10
2.285100173807144142e+00 1.170800676667609024e+10
2.319300178098678611e+00 1.142715740096906471e+10
2.353500182390213080e+00 1.118866824724453735e+10
2.387700186681747549e+00 1.100307757533982658e+10
2.421900190973282019e+00 1.074247864423221970e+10
2.456100195264816488e+00 1.057318999235679054e+10
2.490300199556350957e+00 1.038981481980497360e+10
2.524500203847885427e+00 1.017062616972022820e+10
2.558700208139419896e+00 9.986996561689313889e+09
2.592900212430954365e+00 9.807675789929130554e+09
2.627100216722488835e+00 9.649370844935270309e+09
2.661300221014023304e+00 9.474130620715957642e+09
2.695500225305557773e+00 9.305983672022171021e+09
2.729700229597091798e+00 9.172608027246978760e+09
2.763900233888626268e+00 9.073483334836025238e+09
2.798100238180160737e+00 8.917105346792585373e+09
2.832300242471695206e+00 8.882095786404294968e+09
2.866500246763229676e+00 8.808568790505641937e+09
2.900700251054764145e+00 8.757784664311084747e+09
2.934900255346298614e+00 8.708528814138187408e+09
2.969100259637832639e+00 8.659037125073978424e+09
3.003300263929367109e+00 8.593025033131971359e+09
3.037500268220901578e+00 8.529354852564083099e+09
3.071700272512436047e+00 8.476996724451557159e+09
3.105900276803970517e+00 8.418130700033899307e+09
3.140100281095504986e+00 8.364560956193172455e+09
3.174300285387039455e+00 8.310450643355271339e+09
3.208500289678573925e+00 8.255807906034859657e+09
3.242700293970108394e+00 8.226246699334209442e+09
3.276900298261642863e+00 8.182705734373502731e+09
3.311100302553177332e+00 8.144892125470306396e+09
3.345300306844711802e+00 8.062319029811445236e+09
3.379500311136246271e+00 8.044460049219591141e+09
3.413700315427780740e+00 8.018282346792992592e+09
3.447900319719315210e+00 7.994846531395017624e+09
3.482100324010849679e+00 7.932586894951289177e+09
3.516300328302383704e+00 7.898385079315896988e+09
3.550500332593918174e+00 7.855222709754350662e+09
3.584700336885452643e+00 7.862298790712910652e+09
3.618900341176987112e+00 7.833405769191470146e+09
3.653100345468521581e+00 7.800276729312187195e+09
3.687300349760056051e+00 7.762413710125943184e+09
3.721500354051590520e+00 7.778890816396666527e+09
3.755700358343124989e+00 7.731387566670658112e+09
3.789900362634659459e+00 7.728664675459045410e+09
3.824100366926193040e+00 7.702265727943372726e+09
3.858300371217727509e+00 7.694837833601136208e+09
3.892500375509261978e+00 7.691718856479601860e+09
3.926700379800796448e+00 7.681102497806035042e+09
3.960900384092330917e+00 7.681269423291929245e+09
3.995100388383865386e+00 7.681485878153944016e+09
4.029300392675399856e+00 7.648041565819825172e+09
4.063500396966934325e+00 7.664924572204580307e+09
4.097700401258468794e+00 7.678185446684897423e+09
4.131900405550003263e+00 7.677534693821754456e+09
4.166100409841537733e+00 7.681214691484431267e+09
4.200300414133072202e+00 7.677155717323966980e+09
4.234500418424606671e+00 7.684557163100157738e+09
4.268700422716141141e+00 7.678581304862547874e+09
4.302900427007675610e+00 7.660338852056644440e+09
4.337100431299210079e+00 7.656241684440239906e+09
4.371300435590744549e+00 7.651146040775939941e+09
4.405500439882279018e+00 7.622304903096541405e+09
4.439700444173813487e+00 7.620093419321395874e+09
4.473900448465347957e+00 7.599250640482296944e+09
4.508100452756881538e+00 7.603178415346495628e+09
4.542300457048416007e+00 7.567963822623764992e+09
4.576500461339950476e+00 7.557494257251779556e+09
4.610700465631484946e+00 7.531231595147643089e+09
4.644900469923019415e+00 7.492660135569924355e+09
4.679100474214553884e+00 7.466027272924604416e+09
4.713300478506088353e+00 7.451943138123519897e+09
4.747500482797622823e+00 7.442243842053615570e+09
4.781700487089157292e+00 7.422119780943439484e+09
4.815900491380691761e+00 7.399614437260277748e+09
4.850100495672226231e+00 7.384874864896484375e+09
4.884300499963760700e+00 7.371278408135726929e+09
4.918500504255295169e+00 7.373611555230629921e+09
4.952700508546829639e+00 7.374597250549585342e+09
4.986900512838364108e+00 7.343138711053027153e+09
5.021100517129898577e+00 7.342802218798418045e+09
5.055300521421433046e+00 7.292260236847527504e+09
5.089500525712967516e+00 7.291287003873166084e+09
5.123700530004501985e+00 7.254068067662923813e+09
5.157900534296036454e+00 7.203928196622749329e+09
5.192100538587570924e+00 7.136494635400451660e+09
5.226300542879105393e+00 7.087350171514972687e+09
5.260500547170639862e+00 6.994709645053559303e+09
5.294700551462174332e+00 6.915510869030522346e+09
5.328900555753708801e+00 6.852623698898483276e+09
5.363100560045243270e+00 6.744998661067234039e+09
5.397300564336777740e+00 6.646677677304478645e+09
5.431500568628312209e+00 6.548759365054304123e+09
5.465700572919846678e+00 6.467976722679188728e+09
5.499900577211381147e+00 6.380653235881889343e+09
5.534100581502915617e+00 6.297942026165168762e+09
5.568300585794450086e+00 6.229068222341001511e+09
5.602500590085983667e+00 6.166409325522294044e+09
5.636700594377518136e+00 6.092886141913038254e+09
5.670900598669052606e+00 6.065086858999793053e+09
5.705100602960587075e+00 6.000159415452116013e+09
5.739300607252121544e+00 5.975009261387119293e+09
5.773500611543656014e+00 5.947749818344004631e+09
5.807700615835190483e+00 5.919637872342749596e+09
5.841900620126724952e+00 5.889499842010813713e+09
5.876100624418259422e+00 5.863560146835232735e+09
5.910300628709793891e+00 5.855861672773183823e+09
5.944500633001328360e+00 5.827345522831029892e+09
5.978700637292862829e+00 5.815135169268459320e+09
6.012900641584397299e+00 5.809559718020055771e+09
6.047100645875931768e+00 5.790870309165398598e+09
6.081300650167466237e+00 5.765470838102750778e+09
6.115500654458999819e+00 5.742540407399960518e+09
6.149700658750534288e+00 5.743296941673986435e+09
6.183900663042068757e+00 5.746536667475684166e+09
6.218100667333603226e+00 5.728741903534605026e+09
6.252300671625137696e+00 5.706462197316690445e+09
6.286500675916672165e+00 5.695513344333067894e+09
6.320700680208206634e+00 5.677585113427997589e+09
6.354900684499741104e+00 5.655621895743555069e+09
6.389100688791275573e+00 5.652958722806299210e+09
6.423300693082810042e+00 5.625505138154620171e+09
6.457500697374344512e+00 5.605830568560435295e+09
6.491700701665878981e+00 5.591435734224109650e+09
6.525900705957413450e+00 5.567582025118501663e+09
6.560100710248947919e+00 5.562925587402642250e+09
6.594300714540482389e+00 5.550962008159762383e+09
6.628500718832016858e+00 5.531275912637329102e+09
6.662700723123551327e+00 5.505688674918175697e+09
6.696900727415084020e+00 5.501915952144395828e+09
6.731100731706618490e+00 5.512056657392959595e+09
6.765300735998152959e+00 5.499422287049460411e+09
6.799500740289687428e+00 5.480314555664188385e+09
6.833700744581221898e+00 5.447057874568448067e+09
6.867900748872756367e+00 5.427963636075848579e+09
6.902100753164290836e+00 5.409874424040125847e+09
6.936300757455825305e+00 5.364143306477252960e+09
6.970500761747359775e+00 5.376400363738583565e+09
7.004700766038894244e+00 5.392867916211513519e+09
7.038900770330428713e+00 5.398757674025203705e+09
7.073100774621963183e+00 5.367225988419877052e+09
7.107300778913497652e+00 5.322393433473188400e+09
7.141500783205032121e+00 5.312759501114611626e+09
7.175700787496566591e+00 5.292864135708662033e+09
7.209900791788101060e+00 5.279714394576481819e+09
7.244100796079635529e+00 5.260464631041066170e+09
7.278300800371169998e+00 5.242101550374150276e+09
7.312500804662704468e+00 5.224187629425714493e+09
7.346700808954238937e+00 5.202096792895956993e+09
7.380900813245773406e+00 5.195831848153049469e+09
7.415100817537307876e+00 5.182548806779201508e+09
7.449300821828842345e+00 5.173157439185113907e+09
7.483500826120376814e+00 5.166429136952398300e+09
7.517700830411911284e+00 5.140719082038304329e+09
7.551900834703445753e+00 5.126447341758157730e+09
7.586100838994980222e+00 5.131411654235106468e+09
7.620300843286514691e+00 5.129626543749992371e+09
7.654500847578049161e+00 5.133345718039595604e+09
7.688700851869583630e+00 5.129110541475541115e+09
7.722900856161118099e+00 5.117098159637721062e+09
7.757100860452652569e+00 5.108818261603067398e+09
7.791300864744187038e+00 5.117353229739766121e+09
7.825500869035721507e+00 5.098778886339707375e+09
7.859700873327255977e+00 5.097045771121441841e+09
7.893900877618790446e+00 5.082070284192485809e+09
7.928100881910324915e+00 5.072762436081131935e+09
7.962300886201859385e+00 5.050180484483963013e+09
7.996500890493393854e+00 5.043971598384573936e+09
8.030700894784928323e+00 5.033939185348773956e+09
8.064900899076461016e+00 5.032497844383862495e+09
8.099100903367995485e+00 5.019240787224713326e+09
8.133300907659529955e+00 5.003576688440283775e+09
8.167500911951064424e+00 4.986546554474727631e+09
8.201700916242598893e+00 4.972927249482657433e+09
8.235900920534133363e+00 4.956796250798426628e+09
8.270100924825667832e+00 4.935516394795225143e+09
8.304300929117202301e+00 4.929455641628313065e+09
8.338500933408736771e+00 4.907098363706718445e+09
8.372700937700271240e+00 4.893692809060592651e+09
8.406900941991805709e+00 4.869560026626410484e+09
8.441100946283340178e+00 4.843335249095624924e+09
8.475300950574874648e+00 4.835175806018856049e+09
8.509500954866409117e+00 4.820680943415349960e+09
8.543700959157943586e+00 4.809547998968690872e+09
8.577900963449478056e+00 4.786755692943882942e+09
8.612100967741012525e+00 4.769312624648870468e+09
8.646300972032546994e+00 4.751502794858562469e+09
8.680500976324081464e+00 4.750339219432084084e+09
8.714700980615615933e+00 4.724843094486557961e+09
8.748900984907150402e+00 4.710341095553249359e+09
8.783100989198684871e+00 4.691431616318175316e+09
8.817300993490219341e+00 4.686785972897798538e+09
8.851500997781753810e+00 4.657012434033448219e+09
8.885701002073288279e+00 4.641530728702361107e+09
8.919901006364822749e+00 4.637443354423139572e+09
8.954101010656357218e+00 4.624715563422661781e+09
8.988301014947891687e+00 4.603036329613666534e+09
9.022501019239426157e+00 4.587801214397983551e+09
9.056701023530960626e+00 4.572650346623737335e+09
9.090901027822495095e+00 4.561593862332870483e+09
9.125101032114029564e+00 4.551733670594341278e+09
9.159301036405564034e+00 4.530669759102355003e+09
9.193501040697098503e+00 4.521584608097580910e+09
9.227701044988632972e+00 4.491205190945459366e+09
9.261901049280167442e+00 4.488799613028165817e+09
9.296101053571701911e+00 4.461988494676458359e+09
9.330301057863236380e+00 4.433924923083932877e+09
9.364501062154770850e+00 4.428439201665427208e+09
9.398701066446305319e+00 4.417241480062489510e+09
9.432901070737839788e+00 4.414177147381673813e+09
9.467101075029374257e+00 4.387359858368721008e+09
9.501301079320908727e+00 4.368275310720030785e+09
9.535501083612443196e+00 4.362319371572923660e+09
9.569701087903977665e+00 4.356526379730179787e+09
9.603901092195512135e+00 4.344128639389714241e+09
9.638101096487046604e+00 4.327596022828200340e+09
9.672301100778581073e+00 4.313136366000500679e+09
9.706501105070115543e+00 4.295017684948945999e+09
9.740701109361650012e+00 4.273650830342221737e+09
9.774901113653184481e+00 4.263325563683097839e+09
9.809101117944718951e+00 4.261112792559429646e+09
9.843301122236253420e+00 4.242276770050722122e+09
9.877501126527787889e+00 4.230635165680112362e+09
9.911701130819322358e+00 4.221488270752789021e+09
9.945901135110856828e+00 4.215658052176993370e+09
9.980101139402391297e+00 4.209347489894401073e+09
1.001430114369392577e+01 4.192707672891491413e+09
1.004850114798546024e+01 4.190691500480209351e+09
1.008270115227699470e+01 4.183814643789791107e+09
1.011690115656852917e+01 4.170639135192856789e+09
1.015110116086006364e+01 4.160890640633043766e+09
1.018530116515159811e+01 4.154562247299753666e+09
1.021950116944313258e+01 4.141835096514429092e+09
1.025370117373466528e+01 4.138443234490083694e+09
1.028790117802619974e+01 4.131180386865148544e+09
1.032210118231773421e+01 4.120884020133713245e+09
1.035630118660926868e+01 4.115392142847387314e+09
1.039050119090080315e+01 4.107595709114408493e+09
1.042470119519233762e+01 4.103471195234160423e+09
1.045890119948387209e+01 4.099394908794487476e+09
1.049310120377540656e+01 4.083191025410953045e+09
1.052730120806694103e+01 4.077378198890612125e+09
1.056150121235847550e+01 4.074740876347778320e+09
1.059570121665000997e+01 4.071205713968364239e+09
1.062990122094154444e+01 4.060442712493973255e+09
1.066410122523307891e+01 4.051134221456747055e+09
1.069830122952461338e+01 4.054166736774088860e+09
1.073250123381614785e+01 4.040195571753530025e+09
1.076670123810768231e+01 4.031884470333810806e+09
1.080090124239921678e+01 4.036047229700557232e+09
1.083510124669075125e+01 4.029985714678035259e+09
1.086930125098228572e+01 4.022528827133809566e+09
1.090350125527382019e+01 4.014188379505345345e+09
1.093770125956535466e+01 4.001674058613541603e+09
1.097190126385688913e+01 3.990627315393270969e+09
1.100610126814842360e+01 3.985100690375001431e+09
1.104030127243995807e+01 3.981628794606890202e+09
1.107450127673149254e+01 3.976568191940225124e+09
1.110870128102302701e+01 3.959673806505313873e+09
1.114290128531456148e+01 3.955590453678215981e+09
1.117710128960609595e+01 3.957273423014229298e+09
1.121130129389763042e+01 3.957210872114773273e+09
1.124550129818916488e+01 3.943899560498569012e+09
1.127970130248069935e+01 3.940840835481719971e+09
1.131390130677223205e+01 3.937447165644170284e+09
1.134810131106376652e+01 3.929064609590945244e+09
1.138230131535530099e+01 3.923993556207145214e+09
1.141650131964683546e+01 3.918172411500577927e+09
1.145070132393836992e+01 3.909152937084496975e+09
1.148490132822990439e+01 3.908404844680234432e+09
1.151910133252143886e+01 3.895116189527505398e+09
1.155330133681297333e+01 3.890070498001972675e+09
1.158750134110450780e+01 3.895994069592326164e+09
1.162170134539604227e+01 3.886964054711055279e+09
1.165590134968757674e+01 3.884761046897908211e+09
1.169010135397911121e+01 3.884176230240165234e+09
1.172430135827064568e+01 3.892881424380063534e+09
1.175850136256218015e+01 3.873502551028900623e+09
1.179270136685371462e+01 3.880213243480473995e+09
1.182690137114524909e+01 3.871130120999692440e+09
1.186110137543678356e+01 3.869397475436323166e+09
1.189530137972831803e+01 3.865398095174274445e+09
1.192950138401985249e+01 3.870642619442727566e+09
1.196370138831138696e+01 3.865736006752066612e+09
1.199790139260292143e+01 3.859669155057575226e+09
1.203210139689445590e+01 3.858601241919607162e+09
1.206630140118599037e+01 3.862733087286336422e+09
1.210050140547752484e+01 3.867255119256507874e+09
1.213470140976905931e+01 3.866722778107755184e+09
1.216890141406059378e+01 3.851843654561078548e+09
1.220310141835212825e+01 3.861763604858930111e+09
1.223730142264366272e+01 3.863148592305070877e+09
1.227150142693519719e+01 3.852418715915970802e+09
1.230570143122673166e+01 3.855268968206183434e+09
1.233990143551826613e+01 3.847879324175138474e+09
1.237410143980980060e+01 3.852674552236984730e+09
1.240830144410133506e+01 3.839863392266260624e+09
1.244250144839286776e+01 3.839798411261741161e+09
1.247670145268440223e+01 3.842238422070832729e+09
1.251090145697593670e+01 3.834499994905941010e+09
1.254510146126747117e+01 3.833131446838126183e+09
1.257930146555900563e+01 3.828534335260257244e+09
1.261350146985054010e+01 3.827411776744729996e+09
1.264770147414207457e+01 3.831299032505178928e+09
1.268190147843360904e+01 3.822172058332272530e+09
1.271610148272514351e+01 3.812763851375293255e+09
1.275030148701667798e+01 3.811369222264396191e+09
1.278450149130821245e+01 3.806078156074144363e+09
1.281870149559974870e+01 3.801813842352612972e+09
1.285290149989128317e+01 3.791921061256864548e+09
1.288710150418281764e+01 3.784004589546327114e+09
1.292130150847435210e+01 3.785191308915577888e+09
1.295550151276588657e+01 3.776209326821526527e+09
1.298970151705742104e+01 3.775157963039060593e+09
1.302390152134895551e+01 3.766417265205644131e+09
1.305810152564048998e+01 3.769001031516276836e+09
1.309230152993202445e+01 3.764124243643172264e+09
1.312650153422355892e+01 3.750674675196483135e+09
1.316070153851509339e+01 3.748606829052929878e+09
1.319490154280662786e+01 3.743266936451897144e+09
1.322910154709816233e+01 3.741354312241272926e+09
1.326330155138969680e+01 3.741665886650172710e+09
1.329750155568123127e+01 3.723561817865888596e+09
1.333170155997276574e+01 3.724841474663662434e+09
1.336590156426430021e+01 3.726429615231491566e+09
1.340010156855583467e+01 3.731495551164270401e+09
1.343430157284736914e+01 3.716575741270061016e+09
1.346850157713890361e+01 3.707073020732376575e+09
1.350270158143043631e+01 3.719245968115553856e+09
1.353690158572197078e+01 3.708992690094141483e+09
1.357110159001350524e+01 3.712670151505109787e+09
1.360530159430503971e+01 3.700415834479449272e+09
1.363950159859657418e+01 3.702921501240144730e+09
1.367370160288810865e+01 3.698023764919542313e+09
1.370790160717964312e+01 3.693958200610785961e+09
1.374210161147117759e+01 3.696118283123980045e+09
1.377630161576271206e+01 3.696627877869972229e+09
1.381050162005424653e+01 3.704299594833553314e+09
1.384470162434578100e+01 3.681051706201838493e+09
1.387890162863731547e+01 3.669800321715598583e+09
1.391310163292884994e+01 3.669843864302645206e+09
1.394730163722038441e+01 3.670595375170743942e+09
1.398150164151191888e+01 3.668891057158570766e+09
1.401570164580345335e+01 3.673553525747954369e+09
1.404990165009498782e+01 3.674672356194697380e+09
1.408410165438652228e+01 3.672048574595835209e+09
1.411830165867805675e+01 3.669312659767560959e+09
1.415250166296959122e+01 3.656254074855364323e+09
1.418670166726112569e+01 3.656058858039340019e+09
1.422090167155266016e+01 3.667677346722820759e+09
1.425510167584419463e+01 3.668569976523362160e+09
1.428930168013572910e+01 3.663326427874750614e+09
1.432350168442726357e+01 3.661698140557137489e+09
1.435770168871879804e+01 3.664819446743087292e+09
1.439190169301033251e+01 3.668584478392793655e+09
1.442610169730186698e+01 3.678185156209137917e+09
1.446030170159340145e+01 3.682078948224824905e+09
1.449450170588493592e+01 3.689313449509817600e+09
1.452870171017647039e+01 3.685006943873316765e+09
1.456290171446800485e+01 3.690183625524549961e+09
1.459710171875953932e+01 3.689654717170561790e+09
1.463130172305107379e+01 3.699891816137679100e+09
1.466550172734260826e+01 3.708596988297266006e+09
1.469970173163414273e+01 3.709462335133831501e+09
1.473390173592567720e+01 3.729686688668234348e+09
1.476810174021721167e+01 3.743017385845073223e+09
1.480230174450874614e+01 3.753954055078876019e+09
1.483650174880028061e+01 3.778219704313751221e+09
1.487070175309181508e+01 3.801491716479002953e+09
1.490490175738334955e+01 3.816795286920917034e+09
1.493910176167488402e+01 3.830316704366530895e+09
1.497330176596641849e+01 3.850765199233411789e+09
1.500750177025795296e+01 3.869608539075037479e+09
1.504170177454948742e+01 3.888300205318312168e+09
1.507590177884102189e+01 3.901109455187703609e+09
1.511010178313255636e+01 3.922493596691533089e+09
1.514430178742409083e+01 3.942044766830028057e+09
1.517850179171562175e+01 3.954531668239424229e+09
1.521270179600715622e+01 3.966472343258299351e+09
1.524690180029869069e+01 3.995046789253569126e+09
1.528110180459022516e+01 4.003714468647226810e+09
1.531530180888175963e+01 4.019597368406656265e+09
1.534950181317329410e+01 4.031855950223540783e+09
1.538370181746482857e+01 4.052796011286080837e+09
1.541790182175636303e+01 4.054821946583034515e+09
1.545210182604789750e+01 4.071638021483320236e+09
1.548630183033943197e+01 4.070918405950487614e+09
1.552050183463096644e+01 4.093098934249037266e+09
1.555470183892250091e+01 4.104287635822541714e+09
1.558890184321403538e+01 4.117886365470273495e+09
1.562310184750556985e+01 4.133548551798900127e+09
1.565730185179710432e+01 4.151690950733283997e+09
1.569150185608863879e+01 4.155486921645546913e+09
1.572570186038017326e+01 4.156640180738897800e+09
1.575990186467170773e+01 4.182477769497916698e+09
1.579410186896324220e+01 4.187465560462786674e+09
1.582830187325477667e+01 4.202785754602441311e+09
1.586250187754631114e+01 4.203735710656032562e+09
1.589670188183784560e+01 4.208278331324187279e+09
1.593090188612938007e+01 4.221451515370612621e+09
1.596510189042091454e+01 4.230517903754795551e+09
1.599930189471244901e+01 4.242483377403347492e+09
1.603350189900398348e+01 4.248151231580163002e+09
1.606770190329551795e+01 4.260217517785783768e+09
1.610190190758705242e+01 4.267335877221571445e+09
1.613610191187858689e+01 4.277278790179924488e+09
1.617030191617012136e+01 4.286704287820009232e+09
1.620450192046165583e+01 4.291183556434328079e+09
1.623870192475319030e+01 4.296105707818061829e+09
1.627290192904472477e+01 4.306614101073954582e+09
1.630710193333625924e+01 4.308345686968202591e+09
1.634130193762779371e+01 4.329083182945702553e+09
1.637550194191932817e+01 4.339992380265615463e+09
1.640970194621086264e+01 4.341509725239299774e+09
1.644390195050239711e+01 4.352240730187870979e+09
1.647810195479393158e+01 4.349275336881780624e+09
1.651230195908546605e+01 4.367912709214188576e+09
1.654650196337700052e+01 4.366880827655818939e+09
1.658070196766853499e+01 4.376241983951187134e+09
1.661490197196006946e+01 4.381101002604086876e+09
1.664910197625160393e+01 4.385461983443576813e+09
1.668330198054313840e+01 4.390326791579087257e+09
1.671750198483467287e+01 4.406622828954429626e+09
1.675170198912620734e+01 4.415068204773823738e+09
1.678590199341774181e+01 4.423246270745602608e+09
1.682010199770927628e+01 4.428823322752544403e+09
1.685430200200081075e+01 4.427504802022006035e+09
1.688850200629234521e+01 4.429961074560169220e+09
1.692270201058387968e+01 4.447478396171968460e+09
1.695690201487541415e+01 4.455249740646231651e+09
1.699110201916694862e+01 4.449184831992866516e+09
1.702530202345848309e+01 4.456285629554241180e+09
1.705950202775001756e+01 4.475823238418061256e+09
1.709370203204155203e+01 4.494815943152585983e+09
1.712790203633308650e+01 4.471016860381086349e+09
1.716210204062462097e+01 4.480449320630258560e+09
1.719630204491615544e+01 4.488345891402651787e+09
1.723050204920768991e+01 4.501953003554356575e+09
1.726470205349922438e+01 4.495993593087662697e+09
1.729890205779075885e+01 4.509855591616373062e+09
1.733310206208228976e+01 4.511917155643327713e+09
1.736730206637382423e+01 4.521098016238170624e+09
1.740150207066535870e+01 4.526030347430853844e+09
1.743570207495689317e+01 4.527154802556581497e+09
1.746990207924842764e+01 4.528372051844498634e+09
1.750410208353996211e+01 4.533744029265222549e+09
1.753830208783149658e+01 4.548934554768238068e+09
1.757250209212303105e+01 4.563636993354394913e+09
1.760670209641456552e+01 4.556937058233235359e+09
1.764090210070609999e+01 4.567919485290958405e+09
1.767510210499763446e+01 4.568011557411095619e+09
1.770930210928916892e+01 4.577476308516729355e+09
1.774350211358070339e+01 4.577860621423900604e+09
1.777770211787223786e+01 4.584791235350198746e+09
1.781190212216377233e+01 4.581249447661174774e+09
1.784610212645530680e+01 4.579579629636957169e+09
1.788030213074684127e+01 4.585862474255108833e+09
1.791450213503837574e+01 4.579963503832154274e+09
1.794870213932991021e+01 4.593464794381933212e+09
1.798290214362144468e+01 4.584139308759923935e+09
