9.171000021457672569e-01 2.279741701401366043e+10
9.513000064373017262e-01 2.307608270794061279e+10
9.855000107288361955e-01 2.283239182057363892e+10
1.019700015020370554e+00 2.255539617626958084e+10
1.053900019311905023e+00 2.242057292553439713e+10
1.088100023603439492e+00 2.204479784391394043e+10
1.122300027894973740e+00 2.175888728175187683e+10
1.156500032186508209e+00 2.126947809878174210e+10
1.190700036478042678e+00 2.084507994170132828e+10
1.224900040769577148e+00 2.045251452035060883e+10
1.259100045061111617e+00 1.993428158213771439e+10
1.293300049352645864e+00 1.965771285145664597e+10
1.327500053644180333e+00 1.918006292741407776e+10
1.361700057935714803e+00 1.861803565215582275e+10
1.395900062227249272e+00 1.823412843006137466e+10
1.430100066518783741e+00 1.777652031909413528e+10
1.464300070810318211e+00 1.728125979940081406e+10
1.498500075101852680e+00 1.679424758999449158e+10
1.532700079393387149e+00 1.636672410524236488e+10
1.566900083684921396e+00 1.590170307314087677e+10
1.601100087976456088e+00 1.543783274328850365e+10
1.635300092267990557e+00 1.496532835074236679e+10
1.669500096559524582e+00 1.454839568451004219e+10
1.703700100851059052e+00 1.419802230757994652e+10
1.737900105142593521e+00 1.380944114247424126e+10
1.772100109434127990e+00 1.339582846823944092e+10
1.806300113725662460e+00 1.303958602454216957e+10
1.840500118017196485e+00 1.264999539742478943e+10
1.874700122308730954e+00 1.231775266175288391e+10
1.908900126600265423e+00 1.199200525144060707e+10
1.943100130891799893e+00 1.165324984209903336e+10
1.977300135183334362e+00 1.136120925025964546e+10
2.011500139474868831e+00 1.105522791897987366e+10
2.045700143766403301e+00 1.079183610313962364e+10
2.079900148057937770e+00 1.051620112942883110e+10
2.114100152349472239e+00 1.028959837124381828e+10
2.148300156641006708e+00 1.000281879600437737e+10
2.182500160932541178e+00 9.807260966208106995e+09
2.216700165224075203e+00 9.576350152424430847e+09
2.250900169515609672e+00 9.372236295795829773e+09
2.285100173807144142e+00 9.189713294335145950e+09
2.319300178098678611e+00 9.005752359174150467e+09
2.353500182390213080e+00 8.809208725294408798e+09
2.387700186681747549e+00 8.665689679046001434e+09
2.421900190973282019e+00 8.459102565706832886e+09
2.456100195264816488e+00 8.343759002536978722e+09
2.490300199556350957e+00 8.211326625489863396e+09
2.524500203847885427e+00 8.070888049113937378e+09
2.558700208139419896e+00 7.949424722444928169e+09
2.592900212430954365e+00 7.825951405122017860e+09
2.627100216722488835e+00 7.722140128541644096e+09
2.661300221014023304e+00 7.598064614502117157e+09
2.695500225305557773e+00 7.491369127244928360e+09
2.729700229597091798e+00 7.422650717948262215e+09
2.763900233888626268e+00 7.316363924631993294e+09
2.798100238180160737e+00 7.203324380063882828e+09
2.832300242471695206e+00 7.144046580822709084e+09
2.866500246763229676e+00 7.087825585447984695e+09
2.900700251054764145e+00 6.998759164780226707e+09
2.934900255346298614e+00 6.916875943373633385e+09
2.969100259637832639e+00 6.858605817415924072e+09
3.003300263929367109e+00 6.809240192038573265e+09
3.037500268220901578e+00 6.723055626622775078e+09
3.071700272512436047e+00 6.678435063184290886e+09
3.105900276803970517e+00 6.602457980805011749e+09
3.140100281095504986e+00 6.552434170416177750e+09
3.174300285387039455e+00 6.500714626350028992e+09
3.208500289678573925e+00 6.477997679305950165e+09
3.242700293970108394e+00 6.429658162978939056e+09
3.276900298261642863e+00 6.367544752963900566e+09
3.311100302553177332e+00 6.325130157932426453e+09
3.345300306844711802e+00 6.284683906273447037e+09
3.379500311136246271e+00 6.236715970980379105e+09
3.413700315427780740e+00 6.211309997000644684e+09
3.447900319719315210e+00 6.170335813551493645e+09
3.482100324010849679e+00 6.134195238337827682e+09
3.516300328302383704e+00 6.094576943606938362e+09
3.550500332593918174e+00 6.064921451048029900e+09
3.584700336885452643e+00 6.027104250720501900e+09
3.618900341176987112e+00 6.004506221994730949e+09
3.653100345468521581e+00 5.986489123111422539e+09
3.687300349760056051e+00 5.951899405840210915e+09
3.721500354051590520e+00 5.927443248601745605e+09
3.755700358343124989e+00 5.891887635996943474e+09
3.789900362634659459e+00 5.872267060882310867e+09
3.824100366926193040e+00 5.850832353819119453e+09
3.858300371217727509e+00 5.812949449255770683e+09
3.892500375509261978e+00 5.771134161077652931e+09
3.926700379800796448e+00 5.755395972657212257e+09
3.960900384092330917e+00 5.731546173810051918e+09
3.995100388383865386e+00 5.703737419108888626e+09
4.029300392675399856e+00 5.659472921122249603e+09
4.063500396966934325e+00 5.643109086320657730e+09
4.097700401258468794e+00 5.627932607858123779e+09
4.131900405550003263e+00 5.608423152180514336e+09
4.166100409841537733e+00 5.577269795103292465e+09
4.200300414133072202e+00 5.557811664292851448e+09
4.234500418424606671e+00 5.529177892078526497e+09
4.268700422716141141e+00 5.501875283313484192e+09
4.302900427007675610e+00 5.485551619480062485e+09
4.337100431299210079e+00 5.464940941272528648e+09
4.371300435590744549e+00 5.435924439760948181e+09
4.405500439882279018e+00 5.408562275650141716e+09
4.439700444173813487e+00 5.385933677146131516e+09
4.473900448465347957e+00 5.377413780006929398e+09
4.508100452756881538e+00 5.370116051437530518e+09
4.542300457048416007e+00 5.325761020334913254e+09
4.576500461339950476e+00 5.304825540171101570e+09
4.610700465631484946e+00 5.293782442764445305e+09
4.644900469923019415e+00 5.272933266071677208e+09
4.679100474214553884e+00 5.255030945897782326e+09
4.713300478506088353e+00 5.235041023702465057e+09
4.747500482797622823e+00 5.209580579285925865e+09
4.781700487089157292e+00 5.189144287129558563e+09
4.815900491380691761e+00 5.175678066589832306e+09
4.850100495672226231e+00 5.150376667372334480e+09
4.884300499963760700e+00 5.129345256551495552e+09
4.918500504255295169e+00 5.115482114787248611e+09
4.952700508546829639e+00 5.105512903851444244e+09
4.986900512838364108e+00 5.081903745573737144e+09
5.021100517129898577e+00 5.068995762906345367e+09
5.055300521421433046e+00 5.048391039740169525e+09
5.089500525712967516e+00 5.034958256474046707e+09
5.123700530004501985e+00 5.011446783202687263e+09
5.157900534296036454e+00 4.993954436590519905e+09
5.192100538587570924e+00 4.977318161545789719e+09
5.226300542879105393e+00 4.957151633859917641e+09
5.260500547170639862e+00 4.939074742870503426e+09
5.294700551462174332e+00 4.919601907527006149e+09
5.328900555753708801e+00 4.921002151952378273e+09
5.363100560045243270e+00 4.892798103616361618e+09
5.397300564336777740e+00 4.869343218730112076e+09
5.431500568628312209e+00 4.853924977889614105e+09
5.465700572919846678e+00 4.853228217250950813e+09
5.499900577211381147e+00 4.828316457543696404e+09
5.534100581502915617e+00 4.813269296341404915e+09
5.568300585794450086e+00 4.790804363323967934e+09
5.602500590085983667e+00 4.776187293648088455e+09
5.636700594377518136e+00 4.754229640472660065e+09
5.670900598669052606e+00 4.749620746397590637e+09
5.705100602960587075e+00 4.725894609426627159e+09
5.739300607252121544e+00 4.714258839778709412e+09
5.773500611543656014e+00 4.704422640091872215e+09
5.807700615835190483e+00 4.697297420807791710e+09
5.841900620126724952e+00 4.680505422696493149e+09
5.876100624418259422e+00 4.667557492682986259e+09
5.910300628709793891e+00 4.654757214219169617e+09
5.944500633001328360e+00 4.638116962172937393e+09
5.978700637292862829e+00 4.619307460869792938e+09
6.012900641584397299e+00 4.605806550281319618e+09
6.047100645875931768e+00 4.589713220043779373e+09
6.081300650167466237e+00 4.576506125490427971e+09
6.115500654458999819e+00 4.549072092613518715e+09
6.149700658750534288e+00 4.543959982070388794e+09
6.183900663042068757e+00 4.549046647104191780e+09
6.218100667333603226e+00 4.520263433787334442e+09
6.252300671625137696e+00 4.506709066788945198e+09
6.286500675916672165e+00 4.493816431749121666e+09
6.320700680208206634e+00 4.475447779302636147e+09
6.354900684499741104e+00 4.452595890795446396e+09
6.389100688791275573e+00 4.444421810506596565e+09
6.423300693082810042e+00 4.429292789627621651e+09
6.457500697374344512e+00 4.409006913731749535e+09
6.491700701665878981e+00 4.399128180984216690e+09
6.525900705957413450e+00 4.389239508381242752e+09
6.560100710248947919e+00 4.389684303311427116e+09
6.594300714540482389e+00 4.371186709657209396e+09
6.628500718832016858e+00 4.349995390297186852e+09
6.662700723123551327e+00 4.355657232156558990e+09
6.696900727415084020e+00 4.345798956024159431e+09
6.731100731706618490e+00 4.379909399425662041e+09
6.765300735998152959e+00 4.368814030733316422e+09
6.799500740289687428e+00 4.357575994859704971e+09
6.833700744581221898e+00 4.343159597673251152e+09
6.867900748872756367e+00 4.330374436642601967e+09
6.902100753164290836e+00 4.317220365751836777e+09
6.936300757455825305e+00 4.291492641877154827e+09
6.970500761747359775e+00 4.316097812742362022e+09
7.004700766038894244e+00 4.336850531245517731e+09
7.038900770330428713e+00 4.336064713529926300e+09
7.073100774621963183e+00 4.324252522309234619e+09
7.107300778913497652e+00 4.303685086670428276e+09
7.141500783205032121e+00 4.301859142275553703e+09
7.175700787496566591e+00 4.287425034196731091e+09
7.209900791788101060e+00 4.274865020020017624e+09
7.244100796079635529e+00 4.272954578128819942e+09
7.278300800371169998e+00 4.253863247165308475e+09
7.312500804662704468e+00 4.238402679404700756e+09
7.346700808954238937e+00 4.220222566615748882e+09
7.380900813245773406e+00 4.213521654358047962e+09
7.415100817537307876e+00 4.190378134751831532e+09
7.449300821828842345e+00 4.180774947298207283e+09
7.483500826120376814e+00 4.170379030842744350e+09
7.517700830411911284e+00 4.153486553603556633e+09
7.551900834703445753e+00 4.137800127609207630e+09
7.586100838994980222e+00 4.124217934069408417e+09
7.620300843286514691e+00 4.109583345071069241e+09
7.654500847578049161e+00 4.099955116701571941e+09
7.688700851869583630e+00 4.080883323903732300e+09
7.722900856161118099e+00 4.075560303364802361e+09
7.757100860452652569e+00 4.064126232747972488e+09
7.791300864744187038e+00 4.053857402250163555e+09
7.825500869035721507e+00 4.027015264280808926e+09
7.859700873327255977e+00 4.013506887079321861e+09
7.893900877618790446e+00 4.010804226935749531e+09
7.928100881910324915e+00 3.994876668876810074e+09
7.962300886201859385e+00 3.966853013091011524e+09
7.996500890493393854e+00 3.956361936987040043e+09
8.030700894784928323e+00 3.948756899268666744e+09
8.064900899076461016e+00 3.941347000834749699e+09
8.099100903367995485e+00 3.924556950430665016e+09
8.133300907659529955e+00 3.913382485131406307e+09
8.167500911951064424e+00 3.902503895205360889e+09
8.201700916242598893e+00 3.883619000974020481e+09
8.235900920534133363e+00 3.878384566482833385e+09
8.270100924825667832e+00 3.859853972721667290e+09
8.304300929117202301e+00 3.855375009162236214e+09
8.338500933408736771e+00 3.840135763454820633e+09
8.372700937700271240e+00 3.831389280009089947e+09
8.406900941991805709e+00 3.812863959616170406e+09
8.441100946283340178e+00 3.792874476495016575e+09
8.475300950574874648e+00 3.780391710542521000e+09
8.509500954866409117e+00 3.779224061828596592e+09
8.543700959157943586e+00 3.763336699820055008e+09
8.577900963449478056e+00 3.757672727671234608e+09
8.612100967741012525e+00 3.743257058405725479e+09
8.646300972032546994e+00 3.734624441905027866e+09
8.680500976324081464e+00 3.726547825778410912e+09
8.714700980615615933e+00 3.708558049129594326e+09
8.748900984907150402e+00 3.703330794021352291e+09
8.783100989198684871e+00 3.691151036580526829e+09
8.817300993490219341e+00 3.685447178778658867e+09
8.851500997781753810e+00 3.663687909658853531e+09
8.885701002073288279e+00 3.659120697195023060e+09
8.919901006364822749e+00 3.657998616599210262e+09
8.954101010656357218e+00 3.648543873695130348e+09
8.988301014947891687e+00 3.633655883836131573e+09
9.022501019239426157e+00 3.629302403055380821e+09
9.056701023530960626e+00 3.617903051733732224e+09
9.090901027822495095e+00 3.608246307802590370e+09
9.125101032114029564e+00 3.603686883700539112e+09
9.159301036405564034e+00 3.602480737050508499e+09
9.193501040697098503e+00 3.591952418518548965e+09
9.227701044988632972e+00 3.573100368310225010e+09
9.261901049280167442e+00 3.573848879409930229e+09
9.296101053571701911e+00 3.562638678634855270e+09
9.330301057863236380e+00 3.545463945623947620e+09
9.364501062154770850e+00 3.543427375335521221e+09
9.398701066446305319e+00 3.539280074333480835e+09
9.432901070737839788e+00 3.533258343492255211e+09
9.467101075029374257e+00 3.519624343509463310e+09
9.501301079320908727e+00 3.518105131795464039e+09
9.535501083612443196e+00 3.502568547037990093e+09
9.569701087903977665e+00 3.505791543855802059e+09
9.603901092195512135e+00 3.496544566291864872e+09
9.638101096487046604e+00 3.490657343945879459e+09
9.672301100778581073e+00 3.483360754313201904e+09
9.706501105070115543e+00 3.472582864749814510e+09
9.740701109361650012e+00 3.462367480789561749e+09
9.774901113653184481e+00 3.456696986743019104e+09
9.809101117944718951e+00 3.456682378229040623e+09
9.843301122236253420e+00 3.447377021256564617e+09
9.877501126527787889e+00 3.433433041561461449e+09
9.911701130819322358e+00 3.432613875064493179e+09
9.945901135110856828e+00 3.423632036360905170e+09
9.980101139402391297e+00 3.420199196957500935e+09
1.001430114369392577e+01 3.422801812540007114e+09
1.004850114798546024e+01 3.414123503222979069e+09
1.008270115227699470e+01 3.409842542648275375e+09
1.011690115656852917e+01 3.394027920818711758e+09
1.015110116086006364e+01 3.387652773685379505e+09
1.018530116515159811e+01 3.381727257202963352e+09
1.021950116944313258e+01 3.389004129127668858e+09
1.025370117373466528e+01 3.374766994101257801e+09
1.028790117802619974e+01 3.373706662145061970e+09
1.032210118231773421e+01 3.356649594203963757e+09
1.035630118660926868e+01 3.357403159384719372e+09
1.039050119090080315e+01 3.355351760974753380e+09
1.042470119519233762e+01 3.345936953591859818e+09
1.045890119948387209e+01 3.348893478898188591e+09
1.049310120377540656e+01 3.334426488528223038e+09
1.052730120806694103e+01 3.328852990200295448e+09
1.056150121235847550e+01 3.331045680387457848e+09
1.059570121665000997e+01 3.322707784448371887e+09
1.062990122094154444e+01 3.318427728466343880e+09
1.066410122523307891e+01 3.302071215885902405e+09
1.069830122952461338e+01 3.312310276050038815e+09
1.073250123381614785e+01 3.306641874300661087e+09
1.076670123810768231e+01 3.302790889479649544e+09
1.080090124239921678e+01 3.307720292010012150e+09
1.083510124669075125e+01 3.297761755326901913e+09
1.086930125098228572e+01 3.291215836143298149e+09
1.090350125527382019e+01 3.289023216760439396e+09
1.093770125956535466e+01 3.275200477945538521e+09
1.097190126385688913e+01 3.282351068458932400e+09
1.100610126814842360e+01 3.275819357960894108e+09
1.104030127243995807e+01 3.271739769562546253e+09
1.107450127673149254e+01 3.263267327400016785e+09
1.110870128102302701e+01 3.254316283125917435e+09
1.114290128531456148e+01 3.250200282376821518e+09
1.117710128960609595e+01 3.247662387610385895e+09
1.121130129389763042e+01 3.247463927813346386e+09
1.124550129818916488e+01 3.241464090037524223e+09
1.127970130248069935e+01 3.242722690966774940e+09
1.131390130677223205e+01 3.230349071833857059e+09
1.134810131106376652e+01 3.230110942541360855e+09
1.138230131535530099e+01 3.223486324825147629e+09
1.141650131964683546e+01 3.218774205086161613e+09
1.145070132393836992e+01 3.214440264234698772e+09
1.148490132822990439e+01 3.218384427040013790e+09
1.151910133252143886e+01 3.209239053626983166e+09
1.155330133681297333e+01 3.197816027743615627e+09
1.158750134110450780e+01 3.200709786644968033e+09
1.162170134539604227e+01 3.198964223733078003e+09
1.165590134968757674e+01 3.186862544143657684e+09
1.169010135397911121e+01 3.190806890508949280e+09
1.172430135827064568e+01 3.187872886616384983e+09
1.175850136256218015e+01 3.178404631373318195e+09
1.179270136685371462e+01 3.184395601116698742e+09
1.182690137114524909e+01 3.176468550188174725e+09
1.186110137543678356e+01 3.162770200007257938e+09
1.189530137972831803e+01 3.162778475541642666e+09
1.192950138401985249e+01 3.162021573815342903e+09
1.196370138831138696e+01 3.156207164191224098e+09
1.199790139260292143e+01 3.151607464934855938e+09
1.203210139689445590e+01 3.149579440378441811e+09
1.206630140118599037e+01 3.144843469810695171e+09
1.210050140547752484e+01 3.152260538160631657e+09
1.213470140976905931e+01 3.146280266507226467e+09
1.216890141406059378e+01 3.135354920840066433e+09
1.220310141835212825e+01 3.138258773497342110e+09
1.223730142264366272e+01 3.138398153657098770e+09
1.227150142693519719e+01 3.129287583456405163e+09
1.230570143122673166e+01 3.123669769609290600e+09
1.233990143551826613e+01 3.123541886993777275e+09
1.237410143980980060e+01 3.121614988303454876e+09
1.240830144410133506e+01 3.120144207784994602e+09
1.244250144839286776e+01 3.111407792645975113e+09
1.247670145268440223e+01 3.108392816960716724e+09
1.251090145697593670e+01 3.107501853899191380e+09
1.254510146126747117e+01 3.112310470580435753e+09
1.257930146555900563e+01 3.110047837860108376e+09
1.261350146985054010e+01 3.105102223869487286e+09
1.264770147414207457e+01 3.102638532421923161e+09
1.268190147843360904e+01 3.098792286552915096e+09
1.271610148272514351e+01 3.100690363487090588e+09
1.275030148701667798e+01 3.092638701780264378e+09
1.278450149130821245e+01 3.090915014804198265e+09
1.281870149559974870e+01 3.091143953528554440e+09
1.285290149989128317e+01 3.085396317544562817e+09
1.288710150418281764e+01 3.078735505931289673e+09
1.292130150847435210e+01 3.086247394854564667e+09
1.295550151276588657e+01 3.082838148002606392e+09
1.298970151705742104e+01 3.076973126011613369e+09
1.302390152134895551e+01 3.074560727713438988e+09
1.305810152564048998e+01 3.082410143492461681e+09
1.309230152993202445e+01 3.085244170407464981e+09
1.312650153422355892e+01 3.074398066904078960e+09
1.316070153851509339e+01 3.072091166744997025e+09
1.319490154280662786e+01 3.075370977248780251e+09
1.322910154709816233e+01 3.072834618268555164e+09
1.326330155138969680e+01 3.067171027099749088e+09
1.329750155568123127e+01 3.059571783014486313e+09
1.333170155997276574e+01 3.063653688477992535e+09
1.336590156426430021e+01 3.057673879755754948e+09
1.340010156855583467e+01 3.062313886935131550e+09
1.343430157284736914e+01 3.059895917959857464e+09
1.346850157713890361e+01 3.055381567817116737e+09
1.350270158143043631e+01 3.060663519330526352e+09
1.353690158572197078e+01 3.060569935564372063e+09
1.357110159001350524e+01 3.059258015187307358e+09
1.360530159430503971e+01 3.054480357545651436e+09
1.363950159859657418e+01 3.054760962735243797e+09
1.367370160288810865e+01 3.051618468319503784e+09
1.370790160717964312e+01 3.049953898784044743e+09
1.374210161147117759e+01 3.057663336027664661e+09
1.377630161576271206e+01 3.052940549194220543e+09
1.381050162005424653e+01 3.058061401208998680e+09
1.384470162434578100e+01 3.061431281290215969e+09
1.387890162863731547e+01 3.029747318618156433e+09
1.391310163292884994e+01 3.034319719309002399e+09
1.394730163722038441e+01 3.042874585680403233e+09
1.398150164151191888e+01 3.040012250073709965e+09
1.401570164580345335e+01 3.037776688130378246e+09
1.404990165009498782e+01 3.047518704540263176e+09
1.408410165438652228e+01 3.038973976724096775e+09
1.411830165867805675e+01 3.037547870467467785e+09
1.415250166296959122e+01 3.026511356963101864e+09
1.418670166726112569e+01 3.035792594823968887e+09
1.422090167155266016e+01 3.038752099581413269e+09
1.425510167584419463e+01 3.039728583224071503e+09
1.428930168013572910e+01 3.044279589766713619e+09
1.432350168442726357e+01 3.041478863607571602e+09
1.435770168871879804e+01 3.044347148957747936e+09
1.439190169301033251e+01 3.051899809960928917e+09
1.442610169730186698e+01 3.060926026205341816e+09
1.446030170159340145e+01 3.064130652755910873e+09
1.449450170588493592e+01 3.067137993323621273e+09
1.452870171017647039e+01 3.071004630175903797e+09
1.456290171446800485e+01 3.070606289900356770e+09
1.459710171875953932e+01 3.074171592979753971e+09
1.463130172305107379e+01 3.081188521403274536e+09
1.466550172734260826e+01 3.082840210126186371e+09
1.469970173163414273e+01 3.098843827358267307e+09
1.473390173592567720e+01 3.103974715868367672e+09
1.476810174021721167e+01 3.125424272704307556e+09
1.480230174450874614e+01 3.145803016545580387e+09
1.483650174880028061e+01 3.164129837601963520e+09
1.487070175309181508e+01 3.178442062489896774e+09
1.490490175738334955e+01 3.199549725262371063e+09
1.493910176167488402e+01 3.210389748510443687e+09
1.497330176596641849e+01 3.230823825938732624e+09
1.500750177025795296e+01 3.251236609140868187e+09
1.504170177454948742e+01 3.271208854082911968e+09
1.507590177884102189e+01 3.281235505914487839e+09
1.511010178313255636e+01 3.306783261688991547e+09
1.514430178742409083e+01 3.318116136613669395e+09
1.517850179171562175e+01 3.336717606012265205e+09
1.521270179600715622e+01 3.354870336018372059e+09
1.524690180029869069e+01 3.365482294734220982e+09
1.528110180459022516e+01 3.384551927614423752e+09
1.531530180888175963e+01 3.398247038254159927e+09
1.534950181317329410e+01 3.408461310655302048e+09
1.538370181746482857e+01 3.429503466145719528e+09
1.541790182175636303e+01 3.436604755603198528e+09
1.545210182604789750e+01 3.448866788993412971e+09
1.548630183033943197e+01 3.462902233535111427e+09
1.552050183463096644e+01 3.476148387148530483e+09
1.555470183892250091e+01 3.487812992149023533e+09
1.558890184321403538e+01 3.496319126054277420e+09
1.562310184750556985e+01 3.506150662954077244e+09
1.565730185179710432e+01 3.525161112472566128e+09
1.569150185608863879e+01 3.544356790982419491e+09
1.572570186038017326e+01 3.548848863870675564e+09
1.575990186467170773e+01 3.558906359119001389e+09
1.579410186896324220e+01 3.572592378406460762e+09
1.582830187325477667e+01 3.579109194024846077e+09
1.586250187754631114e+01 3.589470438402824879e+09
1.589670188183784560e+01 3.599392781005385876e+09
1.593090188612938007e+01 3.607100374869357586e+09
1.596510189042091454e+01 3.620504471164965153e+09
1.599930189471244901e+01 3.628712365756873131e+09
1.603350189900398348e+01 3.639323150929953575e+09
1.606770190329551795e+01 3.641598408901990891e+09
1.610190190758705242e+01 3.644855858946025848e+09
1.613610191187858689e+01 3.660277122478906631e+09
1.617030191617012136e+01 3.672008596192748547e+09
1.620450192046165583e+01 3.674531197299225330e+09
1.623870192475319030e+01 3.681438026965672016e+09
1.627290192904472477e+01 3.686689312302623272e+09
1.630710193333625924e+01 3.701368499660344124e+09
1.634130193762779371e+01 3.712269693205035210e+09
1.637550194191932817e+01 3.715366237934790611e+09
1.640970194621086264e+01 3.718777043624905586e+09
1.644390195050239711e+01 3.736708719006736279e+09
1.647810195479393158e+01 3.736341574644873142e+09
1.651230195908546605e+01 3.738527671544428825e+09
1.654650196337700052e+01 3.753515695234534740e+09
1.658070196766853499e+01 3.753226603259683132e+09
1.661490197196006946e+01 3.762336185010505199e+09
1.664910197625160393e+01 3.774816808296597004e+09
1.668330198054313840e+01 3.772268085722758293e+09
1.671750198483467287e+01 3.788878525251275063e+09
1.675170198912620734e+01 3.795012309018506527e+09
1.678590199341774181e+01 3.802951111725402355e+09
1.682010199770927628e+01 3.808112795966025829e+09
1.685430200200081075e+01 3.804892546237445354e+09
1.688850200629234521e+01 3.817867718031062126e+09
1.692270201058387968e+01 3.830114121056324482e+09
1.695690201487541415e+01 3.831330351525310516e+09
1.699110201916694862e+01 3.845607658564400673e+09
1.702530202345848309e+01 3.848155802802185535e+09
1.705950202775001756e+01 3.861810945329733372e+09
1.709370203204155203e+01 3.876919244345861912e+09
1.712790203633308650e+01 3.868282764320439816e+09
1.716210204062462097e+01 3.878271508489326954e+09
1.719630204491615544e+01 3.886134335412292480e+09
1.723050204920768991e+01 3.896248190187001228e+09
1.726470205349922438e+01 3.899348402119610310e+09
1.729890205779075885e+01 3.908668720269906998e+09
1.733310206208228976e+01 3.909496333269387722e+09
1.736730206637382423e+01 3.917757188736512661e+09
1.740150207066535870e+01 3.920594783532703876e+09
1.743570207495689317e+01 3.926147183058060646e+09
1.746990207924842764e+01 3.924047885096548557e+09
1.750410208353996211e+01 3.937176641457254887e+09
1.753830208783149658e+01 3.949241018845843315e+09
1.757250209212303105e+01 3.956543027806533337e+09
1.760670209641456552e+01 3.959824962936398983e+09
1.764090210070609999e+01 3.967564789238781929e+09
1.767510210499763446e+01 3.974285231288456440e+09
1.770930210928916892e+01 3.983130735369599342e+09
1.774350211358070339e+01 3.978573434151154518e+09
1.777770211787223786e+01 3.988435321743627548e+09
1.781190212216377233e+01 3.992726197328211784e+09
1.784610212645530680e+01 3.988520107766847610e+09
1.788030213074684127e+01 3.998521323629722595e+09
1.791450213503837574e+01 4.004018112866428375e+09
1.794870213932991021e+01 4.008572431124848366e+09
1.798290214362144468e+01 4.006344757496883869e+09
