D:\ExperienceGI\Data_ESRF\hd570\HT2\HT2_036.mar3450: Q-Space Scan
Q (Inverse Nanometres)
Intensity
       2048
 2.6720984E-02  0.0000000E+00
 8.0162950E-02  0.0000000E+00
 1.3360491E-01  0.0000000E+00
 1.8704689E-01  0.0000000E+00
 2.4048886E-01  0.0000000E+00
 2.9393083E-01  0.0000000E+00
 3.4737280E-01  0.0000000E+00
 4.0081477E-01  0.0000000E+00
 4.5425671E-01  0.0000000E+00
 5.0769871E-01  0.0000000E+00
 5.6114066E-01  0.0000000E+00
 6.1458266E-01  0.0000000E+00
 6.6802460E-01  0.0000000E+00
 7.2146654E-01  0.0000000E+00
 7.7490854E-01  0.0000000E+00
 8.2835048E-01  0.0000000E+00
 8.8179249E-01  0.0000000E+00
 9.3523443E-01  0.0000000E+00
 9.8867643E-01  0.0000000E+00
 1.0421184E+00  0.0000000E+00
 1.0955603E+00  0.0000000E+00
 1.1490023E+00  0.0000000E+00
 1.2024443E+00  0.0000000E+00
 1.2558862E+00  0.0000000E+00
 1.3093282E+00  0.0000000E+00
 1.3627702E+00  0.0000000E+00
 1.4162122E+00  0.0000000E+00
 1.4696541E+00  0.0000000E+00
 1.5230961E+00  0.0000000E+00
 1.5765381E+00  0.0000000E+00
 1.6299800E+00  0.0000000E+00
 1.6834220E+00  0.0000000E+00
 1.7368640E+00  0.0000000E+00
 1.7903060E+00  0.0000000E+00
 1.8437479E+00  0.0000000E+00
 1.8971899E+00  0.0000000E+00
 1.9506319E+00  0.0000000E+00
 2.0040739E+00  0.0000000E+00
 2.0575159E+00  0.0000000E+00
 2.1109576E+00  0.0000000E+00
 2.1643996E+00  0.0000000E+00
 2.2178416E+00  0.0000000E+00
 2.2712836E+00  0.0000000E+00
 2.3247256E+00  0.0000000E+00
 2.3781676E+00  0.0000000E+00
 2.4316096E+00  0.0000000E+00
 2.4850514E+00  0.0000000E+00
 2.5384934E+00  0.0000000E+00
 2.5919354E+00  0.0000000E+00
 2.6453774E+00  0.0000000E+00
 2.6988194E+00  0.0000000E+00
 2.7522614E+00  0.0000000E+00
 2.8057034E+00  0.0000000E+00
 2.8591452E+00  0.0000000E+00
 2.9125872E+00  0.0000000E+00
 2.9660292E+00  0.0000000E+00
 3.0194712E+00  0.0000000E+00
 3.0729132E+00  0.0000000E+00
 3.1263552E+00  0.0000000E+00
 3.1797972E+00  0.0000000E+00
 3.2332389E+00  0.0000000E+00
 3.2866809E+00  0.0000000E+00
 3.3401229E+00  0.0000000E+00
 3.3935649E+00  2.1234523E+02
 3.4470069E+00  2.2196771E+02
 3.5004489E+00  2.5285065E+02
 3.5538909E+00  2.8501227E+02
 3.6073329E+00  3.0507269E+02
 3.6607747E+00  3.3825085E+02
 3.7142167E+00  3.7333826E+02
 3.7676587E+00  3.8341879E+02
 3.8211007E+00  3.8653162E+02
 3.8745427E+00  3.8254868E+02
 3.9279847E+00  3.8210284E+02
 3.9814267E+00  3.9873508E+02
 4.0348687E+00  4.1545074E+02
 4.0883107E+00  4.2888516E+02
 4.1417527E+00  4.3983508E+02
 4.1951942E+00  4.4838068E+02
 4.2486362E+00  4.5319293E+02
 4.3020782E+00  4.5518964E+02
 4.3555202E+00  4.5799130E+02
 4.4089622E+00  4.6167252E+02
 4.4624043E+00  4.6373459E+02
 4.5158463E+00  4.6458423E+02
 4.5692883E+00  4.6657971E+02
 4.6227303E+00  4.6746014E+02
 4.6761723E+00  4.7040472E+02
 4.7296143E+00  4.7485852E+02
 4.7830563E+00  4.7951874E+02
 4.8364983E+00  4.8287454E+02
 4.8899403E+00  4.8609970E+02
 4.9433818E+00  4.8955969E+02
 4.9968238E+00  4.8858185E+02
 5.0502658E+00  4.8913733E+02
 5.1037078E+00  4.8981030E+02
 5.1571498E+00  4.8860413E+02
 5.2105918E+00  4.9229486E+02
 5.2640338E+00  4.9847568E+02
 5.3174758E+00  5.0225046E+02
 5.3709178E+00  5.0834445E+02
 5.4243598E+00  5.1808417E+02
 5.4778018E+00  5.2555042E+02
 5.5312438E+00  5.3358209E+02
 5.5846858E+00  5.3954462E+02
 5.6381278E+00  5.4478534E+02
 5.6915698E+00  5.4839709E+02
 5.7450113E+00  5.5115729E+02
 5.7984533E+00  5.5485504E+02
 5.8518953E+00  5.5813574E+02
 5.9053373E+00  5.5937805E+02
 5.9587793E+00  5.6551263E+02
 6.0122213E+00  5.6926160E+02
 6.0656633E+00  5.7037347E+02
 6.1191053E+00  5.6830536E+02
 6.1725473E+00  5.7029059E+02
 6.2259893E+00  5.7240472E+02
 6.2794313E+00  5.7342798E+02
 6.3328733E+00  5.7326239E+02
 6.3863153E+00  5.7187201E+02
 6.4397573E+00  5.6976617E+02
 6.4931989E+00  5.6962207E+02
 6.5466409E+00  5.7048517E+02
 6.6000829E+00  5.7045282E+02
 6.6535249E+00  5.7174658E+02
 6.7069669E+00  5.7340472E+02
 6.7604089E+00  5.7355634E+02
 6.8138509E+00  5.7236798E+02
 6.8672929E+00  5.7383807E+02
 6.9207349E+00  5.7537891E+02
 6.9741769E+00  5.7790057E+02
 7.0276189E+00  5.7475195E+02
 7.0810609E+00  5.7263263E+02
 7.1345029E+00  5.7249078E+02
 7.1879449E+00  5.7406165E+02
 7.2413864E+00  5.7409827E+02
 7.2948284E+00  5.7135754E+02
 7.3482704E+00  5.7208789E+02
 7.4017124E+00  5.7452448E+02
 7.4551544E+00  5.7285455E+02
 7.5085964E+00  5.7340082E+02
 7.5620384E+00  5.7419965E+02
 7.6154804E+00  5.7199573E+02
 7.6689224E+00  5.7082776E+02
 7.7223644E+00  5.7188953E+02
 7.7758064E+00  5.7111511E+02
 7.8292484E+00  5.6670874E+02
 7.8826904E+00  5.6833710E+02
 7.9361324E+00  5.6903839E+02
 7.9895740E+00  5.7268884E+02
 8.0430164E+00  5.7545740E+02
 8.0964584E+00  5.7791254E+02
 8.1499004E+00  5.8052954E+02
 8.2033424E+00  5.8302856E+02
 8.2567844E+00  5.8847168E+02
 8.3102264E+00  5.8964868E+02
 8.3636675E+00  5.9247681E+02
 8.4171095E+00  5.9171918E+02
 8.4705515E+00  5.9178516E+02
 8.5239935E+00  5.9223419E+02
 8.5774355E+00  5.9288635E+02
 8.6308775E+00  5.9409662E+02
 8.6843195E+00  5.9274158E+02
 8.7377615E+00  5.9344958E+02
 8.7912035E+00  5.9236890E+02
 8.8446455E+00  5.9291907E+02
 8.8980875E+00  5.9017303E+02
 8.9515295E+00  5.8715192E+02
 9.0049715E+00  5.8744843E+02
 9.0584135E+00  5.8655792E+02
 9.1118555E+00  5.8628815E+02
 9.1652975E+00  5.8572333E+02
 9.2187395E+00  5.8536334E+02
 9.2721815E+00  5.8361316E+02
 9.3256235E+00  5.8050317E+02
 9.3790655E+00  5.7905951E+02
 9.4325075E+00  5.7641528E+02
 9.4859495E+00  5.7870532E+02
 9.5393915E+00  5.8093811E+02
 9.5928335E+00  5.8337115E+02
 9.6462755E+00  5.8439380E+02
 9.6997175E+00  5.8544092E+02
 9.7531595E+00  5.8531598E+02
 9.8066015E+00  5.8576337E+02
 9.8600435E+00  5.8932471E+02
 9.9134846E+00  5.8823578E+02
 9.9669266E+00  5.9044067E+02
 1.0020369E+01  5.9133002E+02
 1.0073811E+01  5.9202704E+02
 1.0127253E+01  5.9307794E+02
 1.0180695E+01  5.9657758E+02
 1.0234137E+01  5.9756561E+02
 1.0287579E+01  5.9887073E+02
 1.0341021E+01  5.9799438E+02
 1.0394463E+01  5.9686975E+02
 1.0447905E+01  5.9945276E+02
 1.0501347E+01  5.9934344E+02
 1.0554789E+01  6.0281439E+02
 1.0608231E+01  6.0699359E+02
 1.0661673E+01  6.0888574E+02
 1.0715115E+01  6.1022687E+02
 1.0768557E+01  6.1330487E+02
 1.0821999E+01  6.1573029E+02
 1.0875441E+01  6.1847180E+02
 1.0928883E+01  6.2086090E+02
 1.0982325E+01  6.2469489E+02
 1.1035767E+01  6.2656024E+02
 1.1089209E+01  6.2692059E+02
 1.1142651E+01  6.2498083E+02
 1.1196093E+01  6.2273309E+02
 1.1249535E+01  6.2148090E+02
 1.1302977E+01  6.2200763E+02
 1.1356419E+01  6.2422931E+02
 1.1409860E+01  6.2408667E+02
 1.1463302E+01  6.2549512E+02
 1.1516744E+01  6.2453406E+02
 1.1570186E+01  6.2407831E+02
 1.1623628E+01  6.2342896E+02
 1.1677070E+01  6.2557855E+02
 1.1730512E+01  6.2859027E+02
 1.1783954E+01  6.2921973E+02
 1.1837396E+01  6.2562152E+02
 1.1890838E+01  6.2414178E+02
 1.1944280E+01  6.2648822E+02
 1.1997722E+01  6.2818121E+02
 1.2051164E+01  6.2991119E+02
 1.2104606E+01  6.3124390E+02
 1.2158048E+01  6.3474078E+02
 1.2211490E+01  6.3458618E+02
 1.2264932E+01  6.3068909E+02
 1.2318374E+01  6.3126062E+02
 1.2371816E+01  6.3097913E+02
 1.2425258E+01  6.3350043E+02
 1.2478700E+01  6.3610559E+02
 1.2532142E+01  6.3734052E+02
 1.2585584E+01  6.3745789E+02
 1.2639026E+01  6.4147723E+02
 1.2692468E+01  6.4474695E+02
 1.2745910E+01  6.4672821E+02
 1.2799352E+01  6.4995062E+02
 1.2852794E+01  6.5390161E+02
 1.2906236E+01  6.5524414E+02
 1.2959677E+01  6.5457831E+02
 1.3013119E+01  6.5704700E+02
 1.3066561E+01  6.5687250E+02
 1.3120003E+01  6.5900177E+02
 1.3173445E+01  6.6205457E+02
 1.3226887E+01  6.6250397E+02
 1.3280329E+01  6.6531763E+02
 1.3333771E+01  6.6664893E+02
 1.3387213E+01  6.6983130E+02
 1.3440655E+01  6.7004248E+02
 1.3494097E+01  6.7144666E+02
 1.3547539E+01  6.7341028E+02
 1.3600981E+01  6.7569727E+02
 1.3654423E+01  6.7718921E+02
 1.3707865E+01  6.7817084E+02
 1.3761307E+01  6.8205383E+02
 1.3814749E+01  6.8640637E+02
 1.3868191E+01  6.8815253E+02
 1.3921633E+01  6.8864258E+02
 1.3975075E+01  6.8896729E+02
 1.4028517E+01  6.9032758E+02
 1.4081959E+01  6.9039813E+02
 1.4135401E+01  6.9140784E+02
 1.4188843E+01  6.9266864E+02
 1.4242285E+01  6.9506140E+02
 1.4295727E+01  6.9535687E+02
 1.4349169E+01  6.9606622E+02
 1.4402611E+01  6.9868500E+02
 1.4456052E+01  7.0119403E+02
 1.4509494E+01  7.0510205E+02
 1.4562936E+01  7.0646216E+02
 1.4616378E+01  7.0852655E+02
 1.4669820E+01  7.0619293E+02
 1.4723262E+01  7.0696033E+02
 1.4776704E+01  7.0660034E+02
 1.4830146E+01  7.0973566E+02
 1.4883588E+01  7.1158081E+02
 1.4937030E+01  7.0986023E+02
 1.4990472E+01  7.1105219E+02
 1.5043914E+01  7.1366589E+02
 1.5097356E+01  7.1508044E+02
 1.5150798E+01  7.1372034E+02
 1.5204240E+01  7.1747906E+02
 1.5257682E+01  7.1764569E+02
 1.5311124E+01  7.1971204E+02
 1.5364566E+01  7.2057819E+02
 1.5418008E+01  7.1810394E+02
 1.5471450E+01  7.1956238E+02
 1.5524892E+01  7.2234161E+02
 1.5578334E+01  7.2380603E+02
 1.5631776E+01  7.2465997E+02
 1.5685218E+01  7.2507050E+02
 1.5738660E+01  7.2614569E+02
 1.5792102E+01  7.2865356E+02
 1.5845544E+01  7.3003741E+02
 1.5898986E+01  7.3346881E+02
 1.5952428E+01  7.3655737E+02
 1.6005869E+01  7.4014978E+02
 1.6059311E+01  7.4255573E+02
 1.6112753E+01  7.4120270E+02
 1.6166195E+01  7.4327997E+02
 1.6219637E+01  7.4138080E+02
 1.6273079E+01  7.4259717E+02
 1.6326521E+01  7.4298590E+02
 1.6379963E+01  7.4514221E+02
 1.6433405E+01  7.4598865E+02
 1.6486847E+01  7.4661829E+02
 1.6540289E+01  7.4758386E+02
 1.6593731E+01  7.4802881E+02
 1.6647173E+01  7.4996259E+02
 1.6700615E+01  7.4967908E+02
 1.6754057E+01  7.5113367E+02
 1.6807499E+01  7.5133875E+02
 1.6860941E+01  7.5070319E+02
 1.6914383E+01  7.5022089E+02
 1.6967825E+01  7.5257062E+02
 1.7021267E+01  7.5544379E+02
 1.7074709E+01  7.5466364E+02
 1.7128151E+01  7.5657153E+02
 1.7181593E+01  7.5596814E+02
 1.7235035E+01  7.5638245E+02
 1.7288477E+01  7.5748340E+02
 1.7341919E+01  7.5832855E+02
 1.7395361E+01  7.5964935E+02
 1.7448803E+01  7.6103601E+02
 1.7502245E+01  7.6286536E+02
 1.7555687E+01  7.6249115E+02
 1.7609129E+01  7.6557214E+02
 1.7662571E+01  7.6866174E+02
 1.7716013E+01  7.6908435E+02
 1.7769455E+01  7.6965820E+02
 1.7822897E+01  7.7373969E+02
 1.7876339E+01  7.7799133E+02
 1.7929781E+01  7.7719757E+02
 1.7983223E+01  7.7631226E+02
 1.8036665E+01  7.7861237E+02
 1.8090107E+01  7.8202979E+02
 1.8143549E+01  7.8253418E+02
 1.8196991E+01  7.8389453E+02
 1.8250431E+01  7.8588556E+02
 1.8303873E+01  7.8716748E+02
 1.8357315E+01  7.8839685E+02
 1.8410757E+01  7.8943640E+02
 1.8464199E+01  7.9074615E+02
 1.8517641E+01  7.8971680E+02
 1.8571083E+01  7.9170184E+02
 1.8624525E+01  7.9155701E+02
 1.8677967E+01  7.9351453E+02
 1.8731409E+01  7.9392084E+02
 1.8784851E+01  7.9484857E+02
 1.8838293E+01  7.9825293E+02
 1.8891735E+01  7.9828314E+02
 1.8945177E+01  7.9729785E+02
 1.8998619E+01  7.9528894E+02
 1.9052061E+01  7.9640228E+02
 1.9105503E+01  7.9605054E+02
 1.9158945E+01  7.9585974E+02
 1.9212387E+01  7.9605267E+02
 1.9265829E+01  7.9915131E+02
 1.9319271E+01  8.0075031E+02
 1.9372713E+01  8.0195471E+02
 1.9426155E+01  8.0286182E+02
 1.9479597E+01  8.0083881E+02
 1.9533039E+01  8.0021014E+02
 1.9586481E+01  8.0273938E+02
 1.9639923E+01  8.0424207E+02
 1.9693365E+01  8.0662994E+02
 1.9746807E+01  8.0775616E+02
 1.9800249E+01  8.0681421E+02
 1.9853691E+01  8.0540356E+02
 1.9907133E+01  8.0462048E+02
 1.9960575E+01  8.0653784E+02
 2.0014017E+01  8.0902954E+02
 2.0067459E+01  8.0630804E+02
 2.0120901E+01  8.0467645E+02
 2.0174343E+01  8.0502435E+02
 2.0227785E+01  8.0521484E+02
 2.0281227E+01  8.0618481E+02
 2.0334669E+01  8.0453894E+02
 2.0388111E+01  8.0495074E+02
 2.0441553E+01  8.0355493E+02
 2.0494995E+01  8.0196857E+02
 2.0548437E+01  8.0155182E+02
 2.0601879E+01  8.0308661E+02
 2.0655321E+01  8.0399847E+02
 2.0708763E+01  8.0351178E+02
 2.0762205E+01  8.0206866E+02
 2.0815647E+01  8.0282623E+02
 2.0869089E+01  8.0083862E+02
 2.0922531E+01  8.0158234E+02
 2.0975973E+01  8.0204529E+02
 2.1029415E+01  8.0313287E+02
 2.1082857E+01  8.0278149E+02
 2.1136299E+01  8.0282990E+02
 2.1189741E+01  8.0127966E+02
 2.1243183E+01  8.0070917E+02
 2.1296623E+01  7.9931793E+02
 2.1350065E+01  8.0068066E+02
 2.1403507E+01  8.0392682E+02
 2.1456949E+01  8.0562494E+02
 2.1510391E+01  8.0791376E+02
 2.1563833E+01  8.0664990E+02
 2.1617275E+01  8.0554486E+02
 2.1670717E+01  8.0273950E+02
 2.1724159E+01  8.0097369E+02
 2.1777601E+01  8.0148090E+02
 2.1831043E+01  8.0280078E+02
 2.1884485E+01  8.0292126E+02
 2.1937927E+01  8.0385394E+02
 2.1991369E+01  8.0311023E+02
 2.2044811E+01  8.0365875E+02
 2.2098253E+01  8.0445050E+02
 2.2151695E+01  8.0851465E+02
 2.2205137E+01  8.1312769E+02
 2.2258579E+01  8.1495483E+02
 2.2312021E+01  8.1602936E+02
 2.2365463E+01  8.1280579E+02
 2.2418905E+01  8.1056879E+02
 2.2472347E+01  8.0702209E+02
 2.2525789E+01  8.0764014E+02
 2.2579231E+01  8.0818243E+02
 2.2632673E+01  8.0856232E+02
 2.2686115E+01  8.0793127E+02
 2.2739557E+01  8.0708685E+02
 2.2792999E+01  8.0838104E+02
 2.2846441E+01  8.0872150E+02
 2.2899883E+01  8.0872742E+02
 2.2953325E+01  8.0875116E+02
 2.3006767E+01  8.0578809E+02
 2.3060209E+01  8.0409863E+02
 2.3113651E+01  8.0568323E+02
 2.3167093E+01  8.0766669E+02
 2.3220535E+01  8.0559680E+02
 2.3273977E+01  8.0585901E+02
 2.3327419E+01  8.0575079E+02
 2.3380861E+01  8.0606085E+02
 2.3434303E+01  8.0522040E+02
 2.3487745E+01  8.0376044E+02
 2.3541187E+01  8.0348993E+02
 2.3594629E+01  8.0269220E+02
 2.3648071E+01  8.0329700E+02
 2.3701513E+01  8.0345428E+02
 2.3754955E+01  8.0439624E+02
 2.3808397E+01  8.0723016E+02
 2.3861839E+01  8.0755243E+02
 2.3915281E+01  8.0614508E+02
 2.3968723E+01  8.0335583E+02
 2.4022165E+01  8.0589288E+02
 2.4075607E+01  8.0600562E+02
 2.4129049E+01  8.0495044E+02
 2.4182491E+01  8.0645276E+02
 2.4235933E+01  8.0614441E+02
 2.4289375E+01  8.0915851E+02
 2.4342815E+01  8.0946539E+02
 2.4396257E+01  8.0645831E+02
 2.4449699E+01  8.0465118E+02
 2.4503141E+01  8.0670129E+02
 2.4556583E+01  8.0883612E+02
 2.4610025E+01  8.1025952E+02
 2.4663467E+01  8.1400854E+02
 2.4716909E+01  8.1558936E+02
 2.4770351E+01  8.1839203E+02
 2.4823793E+01  8.1851892E+02
 2.4877235E+01  8.2166809E+02
 2.4930677E+01  8.2659332E+02
 2.4984119E+01  8.3680737E+02
 2.5037561E+01  8.4946606E+02
 2.5091003E+01  8.5643414E+02
 2.5144445E+01  8.5518903E+02
 2.5197887E+01  8.4552679E+02
 2.5251329E+01  8.3834027E+02
 2.5304771E+01  8.3306232E+02
 2.5358213E+01  8.3247595E+02
 2.5411655E+01  8.3082813E+02
 2.5465097E+01  8.2969458E+02
 2.5518539E+01  8.2977118E+02
 2.5571981E+01  8.3365247E+02
 2.5625423E+01  8.3650421E+02
 2.5678865E+01  8.3961688E+02
 2.5732307E+01  8.4022321E+02
 2.5785749E+01  8.3870868E+02
 2.5839191E+01  8.3877234E+02
 2.5892633E+01  8.4055322E+02
 2.5946075E+01  8.3837573E+02
 2.5999517E+01  8.4232666E+02
 2.6052959E+01  8.4542596E+02
 2.6106401E+01  8.4551886E+02
 2.6159843E+01  8.4597162E+02
 2.6213285E+01  8.4532233E+02
 2.6266727E+01  8.4735205E+02
 2.6320169E+01  8.4965009E+02
 2.6373611E+01  8.5093109E+02
 2.6427053E+01  8.4823871E+02
 2.6480495E+01  8.4742151E+02
 2.6533937E+01  8.4778040E+02
 2.6587379E+01  8.4556384E+02
 2.6640821E+01  8.4647742E+02
 2.6694263E+01  8.4559601E+02
 2.6747705E+01  8.4562701E+02
 2.6801147E+01  8.4791736E+02
 2.6854589E+01  8.4894604E+02
 2.6908031E+01  8.4785254E+02
 2.6961473E+01  8.4843756E+02
 2.7014915E+01  8.4930151E+02
 2.7068357E+01  8.4757617E+02
 2.7121799E+01  8.4673853E+02
 2.7175241E+01  8.4797675E+02
 2.7228683E+01  8.4604620E+02
 2.7282125E+01  8.4503290E+02
 2.7335567E+01  8.4476843E+02
 2.7389008E+01  8.4350299E+02
 2.7442450E+01  8.4209534E+02
 2.7495892E+01  8.4107397E+02
 2.7549334E+01  8.4084113E+02
 2.7602776E+01  8.4220795E+02
 2.7656218E+01  8.4224622E+02
 2.7709660E+01  8.4157751E+02
 2.7763102E+01  8.4031171E+02
 2.7816544E+01  8.3965894E+02
 2.7869986E+01  8.4057617E+02
 2.7923428E+01  8.3949066E+02
 2.7976870E+01  8.3866187E+02
 2.8030312E+01  8.4048621E+02
 2.8083754E+01  8.4344049E+02
 2.8137196E+01  8.4658325E+02
 2.8190638E+01  8.5075916E+02
 2.8244080E+01  8.5075293E+02
 2.8297522E+01  8.5121252E+02
 2.8350964E+01  8.5055194E+02
 2.8404406E+01  8.4757605E+02
 2.8457848E+01  8.4686438E+02
 2.8511290E+01  8.4426770E+02
 2.8564732E+01  8.3962299E+02
 2.8618174E+01  8.3977844E+02
 2.8671616E+01  8.3984637E+02
 2.8725058E+01  8.3959302E+02
 2.8778500E+01  8.3809570E+02
 2.8831942E+01  8.3894623E+02
 2.8885384E+01  8.3974945E+02
 2.8938826E+01  8.3916742E+02
 2.8992268E+01  8.3866656E+02
 2.9045710E+01  8.3483191E+02
 2.9099152E+01  8.3366235E+02
 2.9152594E+01  8.3222369E+02
 2.9206036E+01  8.3252631E+02
 2.9259478E+01  8.3317719E+02
 2.9312920E+01  8.3440295E+02
 2.9366362E+01  8.3696698E+02
 2.9419804E+01  8.3702795E+02
 2.9473246E+01  8.3680066E+02
 2.9526688E+01  8.3649463E+02
 2.9580130E+01  8.3732672E+02
 2.9633572E+01  8.3643353E+02
 2.9687014E+01  8.3751221E+02
 2.9740456E+01  8.3769958E+02
 2.9793898E+01  8.3967529E+02
 2.9847340E+01  8.4321307E+02
 2.9900782E+01  8.4256982E+02
 2.9954224E+01  8.4369238E+02
 3.0007666E+01  8.4346442E+02
 3.0061108E+01  8.4181201E+02
 3.0114550E+01  8.4114270E+02
 3.0167992E+01  8.4107111E+02
 3.0221434E+01  8.4110577E+02
 3.0274876E+01  8.4242047E+02
 3.0328318E+01  8.4157355E+02
 3.0381760E+01  8.3969861E+02
 3.0435200E+01  8.3941589E+02
 3.0488642E+01  8.3923438E+02
 3.0542084E+01  8.3976685E+02
 3.0595526E+01  8.4083820E+02
 3.0648968E+01  8.3804456E+02
 3.0702410E+01  8.3650775E+02
 3.0755852E+01  8.3715387E+02
 3.0809294E+01  8.3855078E+02
 3.0862736E+01  8.3846881E+02
 3.0916178E+01  8.4047888E+02
 3.0969620E+01  8.4084119E+02
 3.1023062E+01  8.3970868E+02
 3.1076504E+01  8.4105200E+02
 3.1129946E+01  8.4413690E+02
 3.1183388E+01  8.4597906E+02
 3.1236830E+01  8.4478320E+02
 3.1290272E+01  8.4510828E+02
 3.1343714E+01  8.4493024E+02
 3.1397156E+01  8.4189624E+02
 3.1450598E+01  8.3859973E+02
 3.1504040E+01  8.3865472E+02
 3.1557482E+01  8.3894537E+02
 3.1610924E+01  8.3720770E+02
 3.1664366E+01  8.3754816E+02
 3.1717808E+01  8.3960583E+02
 3.1771250E+01  8.4270282E+02
 3.1824692E+01  8.4295056E+02
 3.1878134E+01  8.4451947E+02
 3.1931576E+01  8.4556628E+02
 3.1985018E+01  8.4598297E+02
 3.2038460E+01  8.4737195E+02
 3.2091900E+01  8.4573254E+02
 3.2145344E+01  8.4501495E+02
 3.2198784E+01  8.4609998E+02
 3.2252228E+01  8.4796307E+02
 3.2305668E+01  8.4933075E+02
 3.2359112E+01  8.4833398E+02
 3.2412552E+01  8.4695050E+02
 3.2465996E+01  8.4454407E+02
 3.2519436E+01  8.4646765E+02
 3.2572880E+01  8.4808374E+02
 3.2626320E+01  8.4752777E+02
 3.2679764E+01  8.4731903E+02
 3.2733204E+01  8.4784381E+02
 3.2786648E+01  8.4888110E+02
 3.2840088E+01  8.4774255E+02
 3.2893532E+01  8.4718439E+02
 3.2946972E+01  8.4795001E+02
 3.3000416E+01  8.4970148E+02
 3.3053856E+01  8.5042889E+02
 3.3107300E+01  8.5442072E+02
 3.3160740E+01  8.5490649E+02
 3.3214184E+01  8.5440680E+02
 3.3267624E+01  8.5640723E+02
 3.3321068E+01  8.6201703E+02
 3.3374508E+01  8.7651001E+02
 3.3427952E+01  8.9915009E+02
 3.3481392E+01  9.1341180E+02
 3.3534836E+01  9.1131580E+02
 3.3588276E+01  8.9194373E+02
 3.3641720E+01  8.7034845E+02
 3.3695160E+01  8.5626520E+02
 3.3748604E+01  8.5217389E+02
 3.3802044E+01  8.4871289E+02
 3.3855488E+01  8.4981055E+02
 3.3908928E+01  8.5045831E+02
 3.3962372E+01  8.5013538E+02
 3.4015812E+01  8.4928973E+02
 3.4069256E+01  8.4920972E+02
 3.4122696E+01  8.4810083E+02
 3.4176140E+01  8.4897009E+02
 3.4229580E+01  8.5083466E+02
 3.4283024E+01  8.4982227E+02
 3.4336464E+01  8.4636377E+02
 3.4389908E+01  8.4171692E+02
 3.4443348E+01  8.4172601E+02
 3.4496792E+01  8.4398169E+02
 3.4550232E+01  8.4173364E+02
 3.4603676E+01  8.4185339E+02
 3.4657116E+01  8.3992365E+02
 3.4710560E+01  8.3989679E+02
 3.4764000E+01  8.4035217E+02
 3.4817444E+01  8.4177026E+02
 3.4870884E+01  8.4177911E+02
 3.4924328E+01  8.3917621E+02
 3.4977768E+01  8.3775421E+02
 3.5031208E+01  8.3499518E+02
 3.5084652E+01  8.3614032E+02
 3.5138092E+01  8.3791681E+02
 3.5191536E+01  8.3645343E+02
 3.5244976E+01  8.3645801E+02
 3.5298420E+01  8.3577161E+02
 3.5351860E+01  8.3626917E+02
 3.5405304E+01  8.3588281E+02
 3.5458744E+01  8.3515778E+02
 3.5512188E+01  8.3245728E+02
 3.5565628E+01  8.3144183E+02
 3.5619072E+01  8.3327972E+02
 3.5672512E+01  8.3361682E+02
 3.5725956E+01  8.3032813E+02
 3.5779396E+01  8.3111316E+02
 3.5832840E+01  8.3275873E+02
 3.5886280E+01  8.3395129E+02
 3.5939724E+01  8.3415015E+02
 3.5993164E+01  8.3267896E+02
 3.6046608E+01  8.2892767E+02
 3.6100048E+01  8.3122736E+02
 3.6153492E+01  8.3256885E+02
 3.6206932E+01  8.3319287E+02
 3.6260376E+01  8.3457300E+02
 3.6313816E+01  8.3498987E+02
 3.6367260E+01  8.3585327E+02
 3.6420700E+01  8.3693451E+02
 3.6474144E+01  8.3759955E+02
 3.6527584E+01  8.3622595E+02
 3.6581028E+01  8.3577869E+02
 3.6634468E+01  8.3812598E+02
 3.6687912E+01  8.3883368E+02
 3.6741352E+01  8.3841364E+02
 3.6794796E+01  8.3985010E+02
 3.6848236E+01  8.4082794E+02
 3.6901680E+01  8.3942023E+02
 3.6955120E+01  8.3830176E+02
 3.7008564E+01  8.3956726E+02
 3.7062004E+01  8.4261774E+02
 3.7115448E+01  8.4290143E+02
 3.7168888E+01  8.4187622E+02
 3.7222332E+01  8.4221118E+02
 3.7275772E+01  8.4291949E+02
 3.7329216E+01  8.4448792E+02
 3.7382656E+01  8.4402460E+02
 3.7436100E+01  8.4108777E+02
 3.7489540E+01  8.4109027E+02
 3.7542984E+01  8.3929553E+02
 3.7596424E+01  8.3930652E+02
 3.7649868E+01  8.4066919E+02
 3.7703308E+01  8.3924847E+02
 3.7756752E+01  8.3840967E+02
 3.7810192E+01  8.3689301E+02
 3.7863636E+01  8.3662787E+02
 3.7917076E+01  8.3797992E+02
 3.7970520E+01  8.3751514E+02
 3.8023960E+01  8.3791296E+02
 3.8077400E+01  8.3810388E+02
 3.8130844E+01  8.3888599E+02
 3.8184284E+01  8.4026611E+02
 3.8237728E+01  8.4186401E+02
 3.8291168E+01  8.3989423E+02
 3.8344612E+01  8.3824243E+02
 3.8398052E+01  8.4013867E+02
 3.8451496E+01  8.3910187E+02
 3.8504936E+01  8.3915222E+02
 3.8558380E+01  8.3660535E+02
 3.8611820E+01  8.3868079E+02
 3.8665264E+01  8.3993591E+02
 3.8718704E+01  8.4115497E+02
 3.8772148E+01  8.3919879E+02
 3.8825588E+01  8.3751300E+02
 3.8879032E+01  8.3532770E+02
 3.8932472E+01  8.3384656E+02
 3.8985916E+01  8.3253833E+02
 3.9039356E+01  8.3323981E+02
 3.9092800E+01  8.3242133E+02
 3.9146240E+01  8.3262708E+02
 3.9199684E+01  8.3188275E+02
 3.9253124E+01  8.3037494E+02
 3.9306568E+01  8.2857117E+02
 3.9360008E+01  8.2913556E+02
 3.9413452E+01  8.2872955E+02
 3.9466892E+01  8.2832263E+02
 3.9520336E+01  8.2871344E+02
 3.9573776E+01  8.2967059E+02
 3.9627220E+01  8.3316400E+02
 3.9680660E+01  8.3225012E+02
 3.9734104E+01  8.3277344E+02
 3.9787544E+01  8.3366339E+02
 3.9840988E+01  8.3658362E+02
 3.9894428E+01  8.3839203E+02
 3.9947872E+01  8.3962903E+02
 4.0001312E+01  8.3648804E+02
 4.0054756E+01  8.3443866E+02
 4.0108196E+01  8.3412891E+02
 4.0161640E+01  8.3473804E+02
 4.0215080E+01  8.3456958E+02
 4.0268524E+01  8.3456506E+02
 4.0321964E+01  8.3103650E+02
 4.0375408E+01  8.2840540E+02
 4.0428848E+01  8.2672943E+02
 4.0482292E+01  8.2556915E+02
 4.0535732E+01  8.2630566E+02
 4.0589176E+01  8.2524524E+02
 4.0642616E+01  8.2612567E+02
 4.0696060E+01  8.2588770E+02
 4.0749500E+01  8.2572571E+02
 4.0802944E+01  8.2530151E+02
 4.0856384E+01  8.2381653E+02
 4.0909828E+01  8.2738544E+02
 4.0963268E+01  8.2771143E+02
 4.1016712E+01  8.2645166E+02
 4.1070152E+01  8.2346259E+02
 4.1123592E+01  8.2363605E+02
 4.1177036E+01  8.2219165E+02
 4.1230476E+01  8.2424127E+02
 4.1283920E+01  8.2390491E+02
 4.1337360E+01  8.2250342E+02
 4.1390804E+01  8.2137970E+02
 4.1444244E+01  8.2227618E+02
 4.1497688E+01  8.2443933E+02
 4.1551128E+01  8.2469000E+02
 4.1604572E+01  8.2251166E+02
 4.1658012E+01  8.1713934E+02
 4.1711456E+01  8.1491449E+02
 4.1764896E+01  8.1729156E+02
 4.1818340E+01  8.1803864E+02
 4.1871780E+01  8.1813861E+02
 4.1925224E+01  8.1768939E+02
 4.1978664E+01  8.1717383E+02
 4.2032108E+01  8.1455237E+02
 4.2085548E+01  8.1373798E+02
 4.2138992E+01  8.1613470E+02
 4.2192432E+01  8.1605365E+02
 4.2245876E+01  8.1606616E+02
 4.2299316E+01  8.1843292E+02
 4.2352760E+01  8.1893628E+02
 4.2406200E+01  8.1538898E+02
 4.2459644E+01  8.1169940E+02
 4.2513084E+01  8.1337030E+02
 4.2566528E+01  8.1244269E+02
 4.2619968E+01  8.1208728E+02
 4.2673412E+01  8.1174060E+02
 4.2726852E+01  8.1134814E+02
 4.2780296E+01  8.1301044E+02
 4.2833736E+01  8.1083459E+02
 4.2887180E+01  8.1236414E+02
 4.2940620E+01  8.1414154E+02
 4.2994064E+01  8.1626282E+02
 4.3047504E+01  8.1735785E+02
 4.3100948E+01  8.2081866E+02
 4.3154388E+01  8.2769086E+02
 4.3207832E+01  8.3523187E+02
 4.3261272E+01  8.3787018E+02
 4.3314716E+01  8.3733942E+02
 4.3368156E+01  8.3370801E+02
 4.3421600E+01  8.2604535E+02
 4.3475040E+01  8.2095184E+02
 4.3528484E+01  8.1789203E+02
 4.3581924E+01  8.1523932E+02
 4.3635368E+01  8.1553046E+02
 4.3688808E+01  8.1233240E+02
 4.3742252E+01  8.1239294E+02
 4.3795692E+01  8.1375104E+02
 4.3849136E+01  8.1224152E+02
 4.3902576E+01  8.1291345E+02
 4.3956020E+01  8.1388031E+02
 4.4009460E+01  8.1252167E+02
 4.4062904E+01  8.1412164E+02
 4.4116344E+01  8.1680017E+02
 4.4169785E+01  8.1719971E+02
 4.4223228E+01  8.1835291E+02
 4.4276669E+01  8.2013715E+02
 4.4330112E+01  8.1893964E+02
 4.4383553E+01  8.1660980E+02
 4.4436996E+01  8.1570630E+02
 4.4490437E+01  8.1713550E+02
 4.4543880E+01  8.1437323E+02
 4.4597321E+01  8.1174878E+02
 4.4650764E+01  8.1283258E+02
 4.4704205E+01  8.1196167E+02
 4.4757648E+01  8.1172180E+02
 4.4811089E+01  8.1202161E+02
 4.4864532E+01  8.0909326E+02
 4.4917973E+01  8.1130078E+02
 4.4971416E+01  8.1175531E+02
 4.5024857E+01  8.1280292E+02
 4.5078300E+01  8.1257843E+02
 4.5131741E+01  8.1329730E+02
 4.5185184E+01  8.1644067E+02
 4.5238625E+01  8.1758539E+02
 4.5292068E+01  8.1939105E+02
 4.5345509E+01  8.2001172E+02
 4.5398952E+01  8.2083752E+02
 4.5452393E+01  8.1841406E+02
 4.5505836E+01  8.1862494E+02
 4.5559277E+01  8.1690881E+02
 4.5612720E+01  8.1494159E+02
 4.5666161E+01  8.1274786E+02
 4.5719604E+01  8.1270618E+02
 4.5773045E+01  8.1272443E+02
 4.5826488E+01  8.1205377E+02
 4.5879929E+01  8.1165845E+02
 4.5933372E+01  8.0986401E+02
 4.5986813E+01  8.1056177E+02
 4.6040257E+01  8.0970374E+02
 4.6093697E+01  8.0907910E+02
 4.6147141E+01  8.0757294E+02
 4.6200581E+01  8.0785596E+02
 4.6254025E+01  8.0854889E+02
 4.6307465E+01  8.0552612E+02
 4.6360909E+01  8.0171979E+02
 4.6414349E+01  8.0303174E+02
 4.6467793E+01  8.0200092E+02
 4.6521233E+01  7.9781616E+02
 4.6574677E+01  7.9521521E+02
 4.6628117E+01  7.9616266E+02
 4.6681561E+01  7.9587439E+02
 4.6735001E+01  7.9563617E+02
 4.6788445E+01  7.9358783E+02
 4.6841885E+01  7.9123730E+02
 4.6895329E+01  7.9162598E+02
 4.6948769E+01  7.8976947E+02
 4.7002213E+01  7.9051666E+02
 4.7055653E+01  7.9208490E+02
 4.7109097E+01  7.9105896E+02
 4.7162537E+01  7.8751709E+02
 4.7215977E+01  7.8669391E+02
 4.7269421E+01  7.8916760E+02
 4.7322861E+01  7.8983484E+02
 4.7376305E+01  7.8935883E+02
 4.7429745E+01  7.8993622E+02
 4.7483189E+01  7.8987164E+02
 4.7536629E+01  7.8993671E+02
 4.7590073E+01  7.8618225E+02
 4.7643513E+01  7.8711438E+02
 4.7696957E+01  7.8864435E+02
 4.7750397E+01  7.8777734E+02
 4.7803841E+01  7.8772913E+02
 4.7857281E+01  7.8886420E+02
 4.7910725E+01  7.8712714E+02
 4.7964165E+01  7.9067651E+02
 4.8017609E+01  7.9164148E+02
 4.8071049E+01  7.9153973E+02
 4.8124493E+01  7.9745624E+02
 4.8177933E+01  7.9827686E+02
 4.8231377E+01  7.9569580E+02
 4.8284817E+01  7.9729041E+02
 4.8338261E+01  8.0136633E+02
 4.8391701E+01  8.0284845E+02
 4.8445145E+01  8.0949713E+02
 4.8498585E+01  8.1763013E+02
 4.8552029E+01  8.2725458E+02
 4.8605469E+01  8.3305743E+02
 4.8658913E+01  8.2644720E+02
 4.8712353E+01  8.1641589E+02
 4.8765797E+01  8.0896637E+02
 4.8819237E+01  8.0545850E+02
 4.8872681E+01  8.0163702E+02
 4.8926121E+01  7.9739124E+02
 4.8979565E+01  7.9756244E+02
 4.9033005E+01  8.0008521E+02
 4.9086449E+01  8.0173157E+02
 4.9139889E+01  8.0183600E+02
 4.9193333E+01  8.0177344E+02
 4.9246773E+01  8.0194873E+02
 4.9300217E+01  8.0211627E+02
 4.9353657E+01  8.0202795E+02
 4.9407101E+01  8.0274249E+02
 4.9460541E+01  8.0170514E+02
 4.9513985E+01  8.0281671E+02
 4.9567425E+01  8.0404602E+02
 4.9620869E+01  8.0558295E+02
 4.9674309E+01  8.0401141E+02
 4.9727753E+01  8.0458337E+02
 4.9781193E+01  8.0542828E+02
 4.9834637E+01  8.0916498E+02
 4.9888077E+01  8.1208472E+02
 4.9941521E+01  8.1538269E+02
 4.9994961E+01  8.1170251E+02
 5.0048405E+01  8.0649335E+02
 5.0101845E+01  8.0164038E+02
 5.0155289E+01  7.9829303E+02
 5.0208729E+01  7.9684808E+02
 5.0262169E+01  7.9584442E+02
 5.0315613E+01  7.9323395E+02
 5.0369053E+01  7.9379443E+02
 5.0422497E+01  7.9318329E+02
 5.0475937E+01  7.8937689E+02
 5.0529381E+01  7.9102228E+02
 5.0582821E+01  7.9012183E+02
 5.0636265E+01  7.9057245E+02
 5.0689705E+01  7.9604053E+02
 5.0743149E+01  7.9886493E+02
 5.0796589E+01  8.0297559E+02
 5.0850033E+01  8.0961749E+02
 5.0903473E+01  8.0780939E+02
 5.0956917E+01  8.0030164E+02
 5.1010357E+01  7.9105206E+02
 5.1063801E+01  7.8619025E+02
 5.1117241E+01  7.8629266E+02
 5.1170685E+01  7.8446332E+02
 5.1224125E+01  7.8501984E+02
 5.1277569E+01  7.8569855E+02
 5.1331009E+01  7.8548450E+02
 5.1384453E+01  7.8521155E+02
 5.1437893E+01  7.8336194E+02
 5.1491337E+01  7.8197388E+02
 5.1544777E+01  7.8226294E+02
 5.1598221E+01  7.8217078E+02
 5.1651661E+01  7.8123065E+02
 5.1705105E+01  7.7929736E+02
 5.1758545E+01  7.8159680E+02
 5.1811989E+01  7.8077148E+02
 5.1865429E+01  7.7922955E+02
 5.1918873E+01  7.8019751E+02
 5.1972313E+01  7.7945270E+02
 5.2025757E+01  7.8009912E+02
 5.2079197E+01  7.7808997E+02
 5.2132641E+01  7.7534308E+02
 5.2186081E+01  7.7489288E+02
 5.2239525E+01  7.7420526E+02
 5.2292965E+01  7.7092297E+02
 5.2346409E+01  7.6858881E+02
 5.2399849E+01  7.6998102E+02
 5.2453293E+01  7.7024646E+02
 5.2506733E+01  7.7194623E+02
 5.2560177E+01  7.7347961E+02
 5.2613617E+01  7.7357672E+02
 5.2667061E+01  7.7481433E+02
 5.2720501E+01  7.7757892E+02
 5.2773945E+01  7.7945496E+02
 5.2827385E+01  7.8180804E+02
 5.2880829E+01  7.8294867E+02
 5.2934269E+01  7.8213843E+02
 5.2987713E+01  7.8142859E+02
 5.3041153E+01  7.8193384E+02
 5.3094597E+01  7.8213232E+02
 5.3148037E+01  7.8078284E+02
 5.3201481E+01  7.8010394E+02
 5.3254921E+01  7.7942017E+02
 5.3308361E+01  7.8169995E+02
 5.3361805E+01  7.8204169E+02
 5.3415245E+01  7.8107593E+02
 5.3468689E+01  7.8158960E+02
 5.3522129E+01  7.8160193E+02
 5.3575573E+01  7.8151520E+02
 5.3629013E+01  7.8293005E+02
 5.3682457E+01  7.8533203E+02
 5.3735897E+01  7.8488751E+02
 5.3789341E+01  7.8654315E+02
 5.3842781E+01  7.8579852E+02
 5.3896225E+01  7.8245117E+02
 5.3949665E+01  7.8119287E+02
 5.4003109E+01  7.8060938E+02
 5.4056549E+01  7.8252850E+02
 5.4109993E+01  7.8121759E+02
 5.4163433E+01  7.7837390E+02
 5.4216877E+01  7.8025256E+02
 5.4270317E+01  7.7943268E+02
 5.4323761E+01  7.7777563E+02
 5.4377201E+01  7.8056396E+02
 5.4430645E+01  7.8107440E+02
 5.4484085E+01  7.8272058E+02
 5.4537529E+01  7.8467902E+02
 5.4590969E+01  7.8608496E+02
 5.4644413E+01  7.8552911E+02
 5.4697853E+01  7.8174628E+02
 5.4751297E+01  7.7643781E+02
 5.4804737E+01  7.7451483E+02
 5.4858181E+01  7.7421350E+02
 5.4911621E+01  7.7414447E+02
 5.4965065E+01  7.7521045E+02
 5.5018505E+01  7.7485321E+02
 5.5071949E+01  7.7293170E+02
 5.5125389E+01  7.7105328E+02
 5.5178833E+01  7.7062836E+02
 5.5232273E+01  7.7070190E+02
 5.5285717E+01  7.7172125E+02
 5.5339157E+01  7.6959711E+02
 5.5392601E+01  7.7035028E+02
 5.5446041E+01  7.7030017E+02
 5.5499485E+01  7.6827277E+02
 5.5552925E+01  7.7116583E+02
 5.5606369E+01  7.7263507E+02
 5.5659809E+01  7.7193915E+02
 5.5713253E+01  7.7250214E+02
 5.5766693E+01  7.7452655E+02
 5.5820137E+01  7.7318018E+02
 5.5873577E+01  7.7115027E+02
 5.5927021E+01  7.7248608E+02
 5.5980461E+01  7.7193402E+02
 5.6033905E+01  7.6943573E+02
 5.6087345E+01  7.6742657E+02
 5.6140789E+01  7.6660345E+02
 5.6194229E+01  7.6617035E+02
 5.6247669E+01  7.6796606E+02
 5.6301113E+01  7.6605255E+02
 5.6354553E+01  7.6548285E+02
 5.6407997E+01  7.6469916E+02
 5.6461437E+01  7.6603821E+02
 5.6514881E+01  7.6720532E+02
 5.6568321E+01  7.6681696E+02
 5.6621765E+01  7.6479651E+02
 5.6675205E+01  7.6166400E+02
 5.6728649E+01  7.6121497E+02
 5.6782089E+01  7.6037451E+02
 5.6835533E+01  7.5939099E+02
 5.6888973E+01  7.5580920E+02
 5.6942417E+01  7.5375995E+02
 5.6995857E+01  7.5383588E+02
 5.7049301E+01  7.5434534E+02
 5.7102741E+01  7.5249274E+02
 5.7156185E+01  7.5307019E+02
 5.7209625E+01  7.5632782E+02
 5.7263069E+01  7.5636829E+02
 5.7316509E+01  7.5665198E+02
 5.7369953E+01  7.5507300E+02
 5.7423393E+01  7.5504608E+02
 5.7476837E+01  7.5547437E+02
 5.7530277E+01  7.5598846E+02
 5.7583721E+01  7.5356824E+02
 5.7637161E+01  7.5420905E+02
 5.7690605E+01  7.5291998E+02
 5.7744045E+01  7.5309619E+02
 5.7797489E+01  7.5124359E+02
 5.7850929E+01  7.4809052E+02
 5.7904373E+01  7.4867896E+02
 5.7957813E+01  7.4755573E+02
 5.8011257E+01  7.4883643E+02
 5.8064697E+01  7.4674847E+02
 5.8118141E+01  7.4648163E+02
 5.8171581E+01  7.4517236E+02
 5.8225025E+01  7.4401416E+02
 5.8278465E+01  7.4475873E+02
 5.8331909E+01  7.4602948E+02
 5.8385349E+01  7.4418750E+02
 5.8438793E+01  7.4314661E+02
 5.8492233E+01  7.4107971E+02
 5.8545677E+01  7.4199622E+02
 5.8599117E+01  7.4090930E+02
 5.8652561E+01  7.3725726E+02
 5.8706001E+01  7.3546344E+02
 5.8759445E+01  7.3542151E+02
 5.8812885E+01  7.3601208E+02
 5.8866329E+01  7.3559192E+02
 5.8919769E+01  7.3449359E+02
 5.8973213E+01  7.3438348E+02
 5.9026653E+01  7.3319800E+02
 5.9080097E+01  7.2943323E+02
 5.9133537E+01  7.2946338E+02
 5.9186981E+01  7.2822870E+02
 5.9240421E+01  7.2810602E+02
 5.9293861E+01  7.2939459E+02
 5.9347305E+01  7.2715491E+02
 5.9400745E+01  7.2560480E+02
 5.9454189E+01  7.2755225E+02
 5.9507629E+01  7.2833997E+02
 5.9561073E+01  7.2755371E+02
 5.9614513E+01  7.2826001E+02
 5.9667957E+01  7.2754614E+02
 5.9721397E+01  7.2801526E+02
 5.9774841E+01  7.2856104E+02
 5.9828281E+01  7.2697437E+02
 5.9881725E+01  7.2827289E+02
 5.9935165E+01  7.2737653E+02
 5.9988609E+01  7.2796863E+02
 6.0042049E+01  7.2814441E+02
 6.0095493E+01  7.2675812E+02
 6.0148933E+01  7.2704266E+02
 6.0202377E+01  7.2609589E+02
 6.0255817E+01  7.2517291E+02
 6.0309261E+01  7.2636096E+02
 6.0362701E+01  7.2596094E+02
 6.0416145E+01  7.2568707E+02
 6.0469585E+01  7.2405072E+02
 6.0523029E+01  7.2481342E+02
 6.0576469E+01  7.2426758E+02
 6.0629913E+01  7.2424402E+02
 6.0683353E+01  7.2389221E+02
 6.0736797E+01  7.2324725E+02
 6.0790237E+01  7.2155060E+02
 6.0843681E+01  7.2158923E+02
 6.0897121E+01  7.2150006E+02
 6.0950565E+01  7.1923132E+02
 6.1004005E+01  7.1694537E+02
 6.1057449E+01  7.1731763E+02
 6.1110889E+01  7.1752631E+02
 6.1164333E+01  7.1734418E+02
 6.1217773E+01  7.1571521E+02
 6.1271217E+01  7.1681201E+02
 6.1324657E+01  7.1375842E+02
 6.1378101E+01  7.1156488E+02
 6.1431541E+01  7.1098468E+02
 6.1484985E+01  7.1148615E+02
 6.1538425E+01  7.1209930E+02
 6.1591869E+01  7.1130841E+02
 6.1645309E+01  7.1357428E+02
 6.1698753E+01  7.1196527E+02
 6.1752193E+01  7.1463696E+02
 6.1805637E+01  7.1742865E+02
 6.1859077E+01  7.2066333E+02
 6.1912521E+01  7.1979840E+02
 6.1965961E+01  7.2068665E+02
 6.2019405E+01  7.2124176E+02
 6.2072845E+01  7.1996747E+02
 6.2126289E+01  7.1994989E+02
 6.2179729E+01  7.2039532E+02
 6.2233173E+01  7.2214563E+02
 6.2286613E+01  7.2238348E+02
 6.2340054E+01  7.2123914E+02
 6.2393497E+01  7.2154773E+02
 6.2446938E+01  7.1785059E+02
 6.2500381E+01  7.1591644E+02
 6.2553822E+01  7.1597821E+02
 6.2607265E+01  7.1548041E+02
 6.2660706E+01  7.1691052E+02
 6.2714149E+01  7.1522626E+02
 6.2767590E+01  7.1601086E+02
 6.2821033E+01  7.1668793E+02
 6.2874474E+01  7.1494122E+02
 6.2927917E+01  7.1801196E+02
 6.2981358E+01  7.1921722E+02
 6.3034801E+01  7.1908472E+02
 6.3088242E+01  7.2002100E+02
 6.3141685E+01  7.1696906E+02
 6.3195126E+01  7.1728876E+02
 6.3248569E+01  7.1864368E+02
 6.3302010E+01  7.1592865E+02
 6.3355453E+01  7.1477020E+02
 6.3408894E+01  7.1375134E+02
 6.3462337E+01  7.1202771E+02
 6.3515778E+01  7.1235059E+02
 6.3569221E+01  7.0957471E+02
 6.3622662E+01  7.0910394E+02
 6.3676105E+01  7.0609357E+02
 6.3729546E+01  7.0968921E+02
 6.3782990E+01  7.1034760E+02
 6.3836430E+01  7.0816132E+02
 6.3889874E+01  7.0842413E+02
 6.3943314E+01  7.0712677E+02
 6.3996758E+01  7.0847125E+02
 6.4050201E+01  7.0748999E+02
 6.4103638E+01  7.0421405E+02
 6.4157082E+01  7.0505878E+02
 6.4210526E+01  7.0546167E+02
 6.4263969E+01  7.0616632E+02
 6.4317406E+01  7.0453021E+02
 6.4370850E+01  7.0529547E+02
 6.4424294E+01  7.0409973E+02
 6.4477737E+01  7.0174390E+02
 6.4531174E+01  7.0093744E+02
 6.4584618E+01  7.0108148E+02
 6.4638062E+01  7.0172974E+02
 6.4691505E+01  7.0178363E+02
 6.4744942E+01  7.0208838E+02
 6.4798386E+01  7.0023004E+02
 6.4851830E+01  6.9546753E+02
 6.4905273E+01  6.9720386E+02
 6.4958710E+01  6.9597156E+02
 6.5012154E+01  6.9534637E+02
 6.5065598E+01  6.9687775E+02
 6.5119041E+01  6.9502936E+02
 6.5172478E+01  6.9354236E+02
 6.5225922E+01  6.9195880E+02
 6.5279366E+01  6.9146423E+02
 6.5332809E+01  6.9272223E+02
 6.5386246E+01  6.9488959E+02
 6.5439690E+01  6.9352460E+02
 6.5493134E+01  6.9199854E+02
 6.5546570E+01  6.9091437E+02
 6.5600014E+01  6.9117828E+02
 6.5653458E+01  6.9034998E+02
 6.5706902E+01  6.8841846E+02
 6.5760338E+01  6.8718854E+02
 6.5813782E+01  6.8672583E+02
 6.5867226E+01  6.8663342E+02
 6.5920670E+01  6.8560498E+02
 6.5974106E+01  6.8683655E+02
 6.6027550E+01  6.8620190E+02
 6.6080994E+01  6.8389294E+02
 6.6134438E+01  6.8109528E+02
 6.6187874E+01  6.7812885E+02
 6.6241318E+01  6.7750104E+02
 6.6294762E+01  6.7766229E+02
 6.6348206E+01  6.7754999E+02
 6.6401642E+01  6.7861774E+02
 6.6455086E+01  6.7766827E+02
 6.6508530E+01  6.7833777E+02
 6.6561974E+01  6.8139526E+02
 6.6615410E+01  6.8279730E+02
 6.6668854E+01  6.8185431E+02
 6.6722298E+01  6.8477606E+02
 6.6775742E+01  6.8348303E+02
 6.6829178E+01  6.7997571E+02
 6.6882622E+01  6.7944366E+02
 6.6936066E+01  6.8198077E+02
 6.6989510E+01  6.8000104E+02
 6.7042946E+01  6.7715637E+02
 6.7096390E+01  6.7738947E+02
 6.7149834E+01  6.7757312E+02
 6.7203278E+01  6.7789703E+02
 6.7256714E+01  6.7587048E+02
 6.7310158E+01  6.7825189E+02
 6.7363602E+01  6.7888379E+02
 6.7417046E+01  6.7856592E+02
 6.7470482E+01  6.7568024E+02
 6.7523926E+01  6.7545416E+02
 6.7577370E+01  6.7365094E+02
 6.7630814E+01  6.7199133E+02
 6.7684250E+01  6.7301178E+02
 6.7737694E+01  6.7269861E+02
 6.7791138E+01  6.7151978E+02
 6.7844582E+01  6.7300842E+02
 6.7898018E+01  6.7098468E+02
 6.7951462E+01  6.6778894E+02
 6.8004906E+01  6.6592401E+02
 6.8058350E+01  6.6565936E+02
 6.8111786E+01  6.6681512E+02
 6.8165230E+01  6.6582770E+02
 6.8218674E+01  6.6752563E+02
 6.8272118E+01  6.6725757E+02
 6.8325554E+01  6.6701520E+02
 6.8378998E+01  6.6697766E+02
 6.8432442E+01  6.6721814E+02
 6.8485878E+01  6.6296844E+02
 6.8539322E+01  6.6277246E+02
 6.8592766E+01  6.6185895E+02
 6.8646210E+01  6.6152051E+02
 6.8699646E+01  6.6358124E+02
 6.8753090E+01  6.6630463E+02
 6.8806534E+01  6.6827045E+02
 6.8859978E+01  6.7008319E+02
 6.8913414E+01  6.7300098E+02
 6.8966858E+01  6.7593463E+02
 6.9020302E+01  6.7774829E+02
 6.9073746E+01  6.7714569E+02
 6.9127182E+01  6.8135944E+02
 6.9180626E+01  6.8325104E+02
 6.9234070E+01  6.8192169E+02
 6.9287514E+01  6.8056091E+02
 6.9340950E+01  6.8232520E+02
 6.9394394E+01  6.8188342E+02
 6.9447838E+01  6.8089813E+02
 6.9501282E+01  6.8289923E+02
 6.9554718E+01  6.8659552E+02
 6.9608162E+01  6.8815576E+02
 6.9661606E+01  6.8507184E+02
 6.9715050E+01  6.8684369E+02
 6.9768486E+01  6.8742407E+02
 6.9821930E+01  6.8679535E+02
 6.9875374E+01  6.8545667E+02
 6.9928818E+01  6.8434045E+02
 6.9982254E+01  6.8497906E+02
 7.0035698E+01  6.8675421E+02
 7.0089142E+01  6.8694373E+02
 7.0142586E+01  6.8735388E+02
 7.0196022E+01  6.8614960E+02
 7.0249466E+01  6.8309351E+02
 7.0302910E+01  6.7994586E+02
 7.0356354E+01  6.7814111E+02
 7.0409790E+01  6.7555371E+02
 7.0463234E+01  6.7697974E+02
 7.0516678E+01  6.7412958E+02
 7.0570122E+01  6.7465051E+02
 7.0623558E+01  6.7327185E+02
 7.0677002E+01  6.7070972E+02
 7.0730446E+01  6.7069672E+02
 7.0783890E+01  6.7550391E+02
 7.0837326E+01  6.7476917E+02
 7.0890770E+01  6.7610974E+02
 7.0944214E+01  6.7326526E+02
 7.0997658E+01  6.7242645E+02
 7.1051094E+01  6.7293481E+02
 7.1104538E+01  6.7672296E+02
 7.1157982E+01  6.7581830E+02
 7.1211426E+01  6.7837457E+02
 7.1264862E+01  6.7882941E+02
 7.1318306E+01  6.8165918E+02
 7.1371750E+01  6.8324921E+02
 7.1425194E+01  6.8095892E+02
 7.1478630E+01  6.7918414E+02
 7.1532074E+01  6.7897748E+02
 7.1585518E+01  6.7849078E+02
 7.1638954E+01  6.8125055E+02
 7.1692398E+01  6.8138501E+02
 7.1745842E+01  6.8397021E+02
 7.1799286E+01  6.8507599E+02
 7.1852722E+01  6.8307666E+02
 7.1906166E+01  6.8132776E+02
 7.1959610E+01  6.8313245E+02
 7.2013054E+01  6.8330682E+02
 7.2066490E+01  6.8243896E+02
 7.2119934E+01  6.8038055E+02
 7.2173378E+01  6.7890125E+02
 7.2226822E+01  6.7817157E+02
 7.2280258E+01  6.7876721E+02
 7.2333702E+01  6.7908447E+02
 7.2387146E+01  6.7751111E+02
 7.2440590E+01  6.7723822E+02
 7.2494026E+01  6.7478271E+02
 7.2547470E+01  6.7580646E+02
 7.2600914E+01  6.7585565E+02
 7.2654358E+01  6.7682056E+02
 7.2707794E+01  6.7334406E+02
 7.2761238E+01  6.7288776E+02
 7.2814682E+01  6.7331390E+02
 7.2868126E+01  6.7100610E+02
 7.2921562E+01  6.7074670E+02
 7.2975006E+01  6.7426392E+02
 7.3028450E+01  6.7313354E+02
 7.3081894E+01  6.7457483E+02
 7.3135330E+01  6.7403192E+02
 7.3188774E+01  6.7408887E+02
 7.3242218E+01  6.7092505E+02
 7.3295662E+01  6.6840381E+02
 7.3349098E+01  6.6830896E+02
 7.3402542E+01  6.6871002E+02
 7.3455986E+01  6.6950409E+02
 7.3509430E+01  6.6963556E+02
 7.3562866E+01  6.6863751E+02
 7.3616310E+01  6.6676959E+02
 7.3669754E+01  6.6572394E+02
 7.3723198E+01  6.6738483E+02
 7.3776634E+01  6.6804004E+02
 7.3830078E+01  6.6653870E+02
 7.3883522E+01  6.6366479E+02
 7.3936966E+01  6.6303851E+02
 7.3990402E+01  6.6181464E+02
 7.4043846E+01  6.5987982E+02
 7.4097290E+01  6.6128430E+02
 7.4150734E+01  6.6215881E+02
 7.4204170E+01  6.5969617E+02
 7.4257614E+01  6.5852545E+02
 7.4311058E+01  6.5779272E+02
 7.4364502E+01  6.5744318E+02
 7.4417938E+01  6.5838525E+02
 7.4471382E+01  6.5860419E+02
 7.4524826E+01  6.5733423E+02
 7.4578262E+01  6.5741986E+02
 7.4631706E+01  6.5805377E+02
 7.4685150E+01  6.5574762E+02
 7.4738594E+01  6.5519446E+02
 7.4792030E+01  6.5323602E+02
 7.4845474E+01  6.5243597E+02
 7.4898918E+01  6.5414532E+02
 7.4952362E+01  6.5244629E+02
 7.5005798E+01  6.5097327E+02
 7.5059242E+01  6.5181561E+02
 7.5112686E+01  6.5140051E+02
 7.5166130E+01  6.4864807E+02
 7.5219566E+01  6.4992883E+02
 7.5273010E+01  6.4852917E+02
 7.5326454E+01  6.4805280E+02
 7.5379898E+01  6.4666534E+02
 7.5433334E+01  6.4662646E+02
 7.5486778E+01  6.4904742E+02
 7.5540222E+01  6.4911816E+02
 7.5593666E+01  6.4867169E+02
 7.5647102E+01  6.5024860E+02
 7.5700546E+01  6.5091510E+02
 7.5753990E+01  6.5010046E+02
 7.5807434E+01  6.5207672E+02
 7.5860870E+01  6.5334296E+02
 7.5914314E+01  6.5572815E+02
 7.5967758E+01  6.5527277E+02
 7.6021202E+01  6.5601660E+02
 7.6074638E+01  6.5727826E+02
 7.6128082E+01  6.5762671E+02
 7.6181526E+01  6.5553137E+02
 7.6234970E+01  6.5593250E+02
 7.6288406E+01  6.5580908E+02
 7.6341850E+01  6.5710217E+02
 7.6395294E+01  6.5428955E+02
 7.6448738E+01  6.5418732E+02
 7.6502174E+01  6.5540521E+02
 7.6555618E+01  6.5510205E+02
 7.6609062E+01  6.5439581E+02
 7.6662506E+01  6.5439508E+02
 7.6715942E+01  6.5776532E+02
 7.6769386E+01  6.5813434E+02
 7.6822830E+01  6.5483484E+02
 7.6876274E+01  6.5458075E+02
 7.6929710E+01  6.5234619E+02
 7.6983154E+01  6.5089319E+02
 7.7036598E+01  6.5166028E+02
 7.7090042E+01  6.5040814E+02
 7.7143478E+01  6.5065521E+02
 7.7196922E+01  6.4992761E+02
 7.7250366E+01  6.5056628E+02
 7.7303810E+01  6.5031482E+02
 7.7357246E+01  6.4938342E+02
 7.7410690E+01  6.5184491E+02
 7.7464134E+01  6.5061389E+02
 7.7517578E+01  6.4969440E+02
 7.7571014E+01  6.4784204E+02
 7.7624458E+01  6.4744232E+02
 7.7677902E+01  6.4767310E+02
 7.7731339E+01  6.4846606E+02
 7.7784782E+01  6.4693939E+02
 7.7838226E+01  6.4328998E+02
 7.7891670E+01  6.4765735E+02
 7.7945107E+01  6.4930414E+02
 7.7998550E+01  6.5006024E+02
 7.8051994E+01  6.5018872E+02
 7.8105438E+01  6.5082941E+02
 7.8158875E+01  6.5189215E+02
 7.8212318E+01  6.5114368E+02
 7.8265762E+01  6.5078192E+02
 7.8319206E+01  6.5201569E+02
 7.8372643E+01  6.5260394E+02
 7.8426086E+01  6.4887708E+02
 7.8479530E+01  6.4780475E+02
 7.8532974E+01  6.5176825E+02
 7.8586411E+01  6.5514154E+02
 7.8639854E+01  6.5346063E+02
 7.8693298E+01  6.5115552E+02
 7.8746742E+01  6.4982220E+02
 7.8800179E+01  6.4871185E+02
 7.8853622E+01  6.4951331E+02
 7.8907066E+01  6.5109583E+02
 7.8960510E+01  6.5238385E+02
 7.9013947E+01  6.5123108E+02
 7.9067390E+01  6.4786060E+02
 7.9120834E+01  6.4674011E+02
 7.9174278E+01  6.4530066E+02
 7.9227715E+01  6.4703644E+02
 7.9281158E+01  6.4702704E+02
 7.9334602E+01  6.4710455E+02
 7.9388046E+01  6.4787335E+02
 7.9441483E+01  6.4657892E+02
 7.9494926E+01  6.4498615E+02
 7.9548370E+01  6.4272021E+02
 7.9601814E+01  6.4112146E+02
 7.9655251E+01  6.4100659E+02
 7.9708694E+01  6.3824829E+02
 7.9762138E+01  6.3955823E+02
 7.9815582E+01  6.3942413E+02
 7.9869019E+01  6.3932330E+02
 7.9922462E+01  6.3960516E+02
 7.9975906E+01  6.3934119E+02
 8.0029350E+01  6.3870776E+02
 8.0082787E+01  6.3691296E+02
 8.0136230E+01  6.3615509E+02
 8.0189674E+01  6.3852985E+02
 8.0243118E+01  6.3867273E+02
 8.0296555E+01  6.4059546E+02
 8.0349998E+01  6.4158826E+02
 8.0403442E+01  6.4294092E+02
 8.0456886E+01  6.4064410E+02
 8.0510323E+01  6.4091760E+02
 8.0563766E+01  6.3854077E+02
 8.0617210E+01  6.3849774E+02
 8.0670647E+01  6.3894116E+02
 8.0724091E+01  6.3851868E+02
 8.0777534E+01  6.3789246E+02
 8.0830978E+01  6.3819110E+02
 8.0884415E+01  6.3882935E+02
 8.0937859E+01  6.3955878E+02
 8.0991302E+01  6.3930084E+02
 8.1044746E+01  6.3968243E+02
 8.1098183E+01  6.3887048E+02
 8.1151627E+01  6.3837671E+02
 8.1205070E+01  6.3808514E+02
 8.1258514E+01  6.3718097E+02
 8.1311951E+01  6.3440717E+02
 8.1365395E+01  6.3538568E+02
 8.1418839E+01  6.3428625E+02
 8.1472282E+01  6.3439294E+02
 8.1525719E+01  6.3192871E+02
 8.1579163E+01  6.3211951E+02
 8.1632607E+01  6.3304669E+02
 8.1686050E+01  6.3435303E+02
 8.1739487E+01  6.3602399E+02
 8.1792931E+01  6.3475665E+02
 8.1846375E+01  6.3493866E+02
 8.1899818E+01  6.3127515E+02
 8.1953255E+01  6.3082648E+02
 8.2006699E+01  6.3116461E+02
 8.2060143E+01  6.2986835E+02
 8.2113586E+01  6.2804651E+02
 8.2167023E+01  6.2841882E+02
 8.2220467E+01  6.2723907E+02
 8.2273911E+01  6.2799915E+02
 8.2327354E+01  6.2912189E+02
 8.2380791E+01  6.3045203E+02
 8.2434235E+01  6.3115094E+02
 8.2487679E+01  6.3265887E+02
 8.2541122E+01  6.3311578E+02
 8.2594559E+01  6.3265350E+02
 8.2648003E+01  6.3407935E+02
 8.2701447E+01  6.3315936E+02
 8.2754890E+01  6.3350372E+02
 8.2808327E+01  6.3466620E+02
 8.2861771E+01  6.3469342E+02
 8.2915215E+01  6.3511200E+02
 8.2968658E+01  6.3779047E+02
 8.3022095E+01  6.3397943E+02
 8.3075539E+01  6.3213525E+02
 8.3128983E+01  6.3110400E+02
 8.3182426E+01  6.2976660E+02
 8.3235863E+01  6.3028674E+02
 8.3289307E+01  6.3135242E+02
 8.3342751E+01  6.2854718E+02
 8.3396194E+01  6.3014856E+02
 8.3449631E+01  6.3135773E+02
 8.3503075E+01  6.3168738E+02
 8.3556519E+01  6.3123914E+02
 8.3609955E+01  6.3153107E+02
 8.3663399E+01  6.2716400E+02
 8.3716843E+01  6.2710242E+02
 8.3770287E+01  6.2770947E+02
 8.3823723E+01  6.2672943E+02
 8.3877167E+01  6.2660986E+02
 8.3930611E+01  6.2556567E+02
 8.3984055E+01  6.2631549E+02
 8.4037491E+01  6.2368848E+02
 8.4090935E+01  6.2103479E+02
 8.4144379E+01  6.2239105E+02
 8.4197823E+01  6.2230933E+02
 8.4251259E+01  6.2117120E+02
 8.4304703E+01  6.2004010E+02
 8.4358147E+01  6.2128564E+02
 8.4411591E+01  6.2200159E+02
 8.4465027E+01  6.2187878E+02
 8.4518471E+01  6.2105945E+02
 8.4571915E+01  6.2178912E+02
 8.4625359E+01  6.1893103E+02
 8.4678795E+01  6.1937891E+02
 8.4732239E+01  6.2202808E+02
 8.4785683E+01  6.2882513E+02
 8.4839127E+01  6.2966687E+02
 8.4892563E+01  6.3168970E+02
 8.4946007E+01  6.3230579E+02
 8.4999451E+01  6.3140759E+02
 8.5052895E+01  6.3286035E+02
 8.5106331E+01  6.3373969E+02
 8.5159775E+01  6.3662164E+02
 8.5213219E+01  6.3771454E+02
 8.5266663E+01  6.3722687E+02
 8.5320099E+01  6.3489825E+02
 8.5373543E+01  6.3492786E+02
 8.5426987E+01  6.3555090E+02
 8.5480431E+01  6.3477716E+02
 8.5533867E+01  6.3362231E+02
 8.5587311E+01  6.3448444E+02
 8.5640755E+01  6.3496844E+02
 8.5694199E+01  6.3548602E+02
 8.5747635E+01  6.3526837E+02
 8.5801079E+01  6.3412860E+02
 8.5854523E+01  6.3351807E+02
 8.5907967E+01  6.3265863E+02
 8.5961403E+01  6.3256165E+02
 8.6014847E+01  6.3087872E+02
 8.6068291E+01  6.3054779E+02
 8.6121735E+01  6.2954352E+02
 8.6175171E+01  6.3062708E+02
 8.6228615E+01  6.2877600E+02
 8.6282059E+01  6.2904779E+02
 8.6335503E+01  6.2964545E+02
 8.6388939E+01  6.2959314E+02
 8.6442383E+01  6.2774054E+02
 8.6495827E+01  6.2683160E+02
 8.6549271E+01  6.2799164E+02
 8.6602707E+01  6.2497247E+02
 8.6656151E+01  6.2327979E+02
 8.6709595E+01  6.2492188E+02
 8.6763031E+01  6.2395502E+02
 8.6816475E+01  6.2443304E+02
 8.6869919E+01  6.2591754E+02
 8.6923363E+01  6.2502570E+02
 8.6976799E+01  6.2431110E+02
 8.7030243E+01  6.2654279E+02
 8.7083687E+01  6.2950366E+02
 8.7137131E+01  6.3146179E+02
 8.7190567E+01  6.3206671E+02
 8.7244011E+01  6.3667151E+02
 8.7297455E+01  6.3412451E+02
 8.7350899E+01  6.3072821E+02
 8.7404335E+01  6.3201379E+02
 8.7457779E+01  6.2781030E+02
 8.7511223E+01  6.2908496E+02
 8.7564667E+01  6.3006299E+02
 8.7618103E+01  6.2951880E+02
 8.7671547E+01  6.2679584E+02
 8.7724991E+01  6.2752417E+02
 8.7778435E+01  6.2441864E+02
 8.7831871E+01  6.2489282E+02
 8.7885315E+01  6.2663422E+02
 8.7938759E+01  6.2827783E+02
 8.7992203E+01  6.3034113E+02
 8.8045639E+01  6.2968958E+02
 8.8099083E+01  6.2567010E+02
 8.8152527E+01  6.2469843E+02
 8.8205971E+01  6.2290662E+02
 8.8259407E+01  6.2291779E+02
 8.8312851E+01  6.2221338E+02
 8.8366295E+01  6.2341455E+02
 8.8419739E+01  6.2167993E+02
 8.8473175E+01  6.1886157E+02
 8.8526619E+01  6.2007800E+02
 8.8580063E+01  6.1912268E+02
 8.8633507E+01  6.1951672E+02
 8.8686943E+01  6.2019269E+02
 8.8740387E+01  6.2276648E+02
 8.8793831E+01  6.1982434E+02
 8.8847275E+01  6.1961365E+02
 8.8900711E+01  6.1990265E+02
 8.8954155E+01  6.2077319E+02
 8.9007599E+01  6.2215094E+02
 8.9061043E+01  6.2022668E+02
 8.9114479E+01  6.1874463E+02
 8.9167923E+01  6.2127100E+02
 8.9221367E+01  6.2367078E+02
 8.9274811E+01  6.2265039E+02
 8.9328247E+01  6.2222589E+02
 8.9381691E+01  6.2204547E+02
 8.9435135E+01  6.2393414E+02
 8.9488579E+01  6.2256458E+02
 8.9542015E+01  6.2570111E+02
 8.9595459E+01  6.2630200E+02
 8.9648903E+01  6.2337238E+02
 8.9702339E+01  6.2437305E+02
 8.9755783E+01  6.2338959E+02
 8.9809227E+01  6.2588269E+02
 8.9862671E+01  6.2604535E+02
 8.9916107E+01  6.2441254E+02
 8.9969551E+01  6.2562280E+02
 9.0022995E+01  6.2301245E+02
 9.0076439E+01  6.2319312E+02
 9.0129875E+01  6.2242603E+02
 9.0183319E+01  6.2186688E+02
 9.0236763E+01  6.2133057E+02
 9.0290207E+01  6.2063940E+02
 9.0343643E+01  6.2159027E+02
 9.0397087E+01  6.2156934E+02
 9.0450531E+01  6.2369476E+02
 9.0503975E+01  6.2068341E+02
 9.0557411E+01  6.1893896E+02
 9.0610855E+01  6.1461890E+02
 9.0664299E+01  6.1675879E+02
 9.0717743E+01  6.1457782E+02
 9.0771179E+01  6.1376129E+02
 9.0824623E+01  6.1477332E+02
 9.0878067E+01  6.1672266E+02
 9.0931511E+01  6.1881909E+02
 9.0984947E+01  6.1749402E+02
 9.1038391E+01  6.2030249E+02
 9.1091835E+01  6.1971399E+02
 9.1145279E+01  6.1954224E+02
 9.1198715E+01  6.1734998E+02
 9.1252159E+01  6.1626904E+02
 9.1305603E+01  6.1315369E+02
 9.1359047E+01  6.1425464E+02
 9.1412483E+01  6.1310168E+02
 9.1465927E+01  6.1483240E+02
 9.1519371E+01  6.1840491E+02
 9.1572815E+01  6.2193640E+02
 9.1626251E+01  6.2107562E+02
 9.1679695E+01  6.2037457E+02
 9.1733139E+01  6.2106769E+02
 9.1786583E+01  6.2213104E+02
 9.1840019E+01  6.2582690E+02
 9.1893463E+01  6.2575543E+02
 9.1946907E+01  6.2537128E+02
 9.2000351E+01  6.2456604E+02
 9.2053787E+01  6.2226312E+02
 9.2107231E+01  6.2281067E+02
 9.2160675E+01  6.2306085E+02
 9.2214119E+01  6.2176752E+02
 9.2267555E+01  6.2115601E+02
 9.2320999E+01  6.1866449E+02
 9.2374443E+01  6.2006818E+02
 9.2427887E+01  6.2015552E+02
 9.2481323E+01  6.2237408E+02
 9.2534767E+01  6.2371185E+02
 9.2588211E+01  6.1940265E+02
 9.2641655E+01  6.1946008E+02
 9.2695091E+01  6.1971826E+02
 9.2748535E+01  6.1974213E+02
 9.2801979E+01  6.1983295E+02
 9.2855415E+01  6.1737994E+02
 9.2908859E+01  6.1639789E+02
 9.2962303E+01  6.1233789E+02
 9.3015747E+01  6.1220288E+02
 9.3069183E+01  6.1091132E+02
 9.3122627E+01  6.1120679E+02
 9.3176071E+01  6.1462085E+02
 9.3229515E+01  6.1210297E+02
 9.3282951E+01  6.0960712E+02
 9.3336395E+01  6.0924091E+02
 9.3389839E+01  6.1275073E+02
 9.3443283E+01  6.1301654E+02
 9.3496719E+01  6.1273865E+02
 9.3550163E+01  6.1236975E+02
 9.3603607E+01  6.1321289E+02
 9.3657051E+01  6.1298145E+02
 9.3710487E+01  6.1779291E+02
 9.3763931E+01  6.1942505E+02
 9.3817375E+01  6.2174152E+02
 9.3870819E+01  6.2204779E+02
 9.3924255E+01  6.2481744E+02
 9.3977699E+01  6.2583002E+02
 9.4031143E+01  6.2989606E+02
 9.4084587E+01  6.3055695E+02
 9.4138023E+01  6.3149048E+02
 9.4191467E+01  6.3184253E+02
 9.4244911E+01  6.3041168E+02
 9.4298355E+01  6.2933539E+02
 9.4351791E+01  6.2648193E+02
 9.4405235E+01  6.2809381E+02
 9.4458679E+01  6.2923706E+02
 9.4512123E+01  6.3072382E+02
 9.4565559E+01  6.2915753E+02
 9.4619003E+01  6.2862238E+02
 9.4672447E+01  6.3054431E+02
 9.4725891E+01  6.2891498E+02
 9.4779327E+01  6.2990466E+02
 9.4832771E+01  6.2864703E+02
 9.4886215E+01  6.2915527E+02
 9.4939659E+01  6.2927283E+02
 9.4993095E+01  6.2696320E+02
 9.5046539E+01  6.2967712E+02
 9.5099983E+01  6.2844312E+02
 9.5153427E+01  6.2773804E+02
 9.5206863E+01  6.2618109E+02
 9.5260307E+01  6.2388184E+02
 9.5313751E+01  6.2258331E+02
 9.5367195E+01  6.2074841E+02
 9.5420631E+01  6.1904840E+02
 9.5474075E+01  6.2161206E+02
 9.5527519E+01  6.2348370E+02
 9.5580963E+01  6.2137854E+02
 9.5634399E+01  6.2198590E+02
 9.5687843E+01  6.2263434E+02
 9.5741287E+01  6.1797675E+02
 9.5794724E+01  6.1785431E+02
 9.5848167E+01  6.1937720E+02
 9.5901611E+01  6.2069836E+02
 9.5955055E+01  6.1944507E+02
 9.6008492E+01  6.2462427E+02
 9.6061935E+01  6.2701111E+02
 9.6115379E+01  6.2920343E+02
 9.6168823E+01  6.2745624E+02
 9.6222260E+01  6.2811969E+02
 9.6275703E+01  6.2979834E+02
 9.6329147E+01  6.2872540E+02
 9.6382591E+01  6.3029565E+02
 9.6436028E+01  6.3001495E+02
 9.6489471E+01  6.3033929E+02
 9.6542915E+01  6.3242261E+02
 9.6596359E+01  6.2922974E+02
 9.6649796E+01  6.2944257E+02
 9.6703239E+01  6.3102551E+02
 9.6756683E+01  6.2971844E+02
 9.6810127E+01  6.2701086E+02
 9.6863564E+01  6.2607477E+02
 9.6917007E+01  6.2841547E+02
 9.6970451E+01  6.2689264E+02
 9.7023895E+01  6.2841718E+02
 9.7077332E+01  6.2801080E+02
 9.7130775E+01  6.2487177E+02
 9.7184219E+01  6.2715369E+02
 9.7237663E+01  6.2626624E+02
 9.7291100E+01  6.2771173E+02
 9.7344543E+01  6.2620599E+02
 9.7397987E+01  6.2424951E+02
 9.7451431E+01  6.2416479E+02
 9.7504868E+01  6.1951556E+02
 9.7558311E+01  6.1955518E+02
 9.7611755E+01  6.1802838E+02
 9.7665199E+01  6.1656555E+02
 9.7718636E+01  6.1899768E+02
 9.7772079E+01  6.1733734E+02
 9.7825523E+01  6.1759967E+02
 9.7878967E+01  6.1690466E+02
 9.7932404E+01  6.1819226E+02
 9.7985847E+01  6.2068414E+02
 9.8039291E+01  6.1932605E+02
 9.8092735E+01  6.1851660E+02
 9.8146172E+01  6.1731415E+02
 9.8199615E+01  6.1903485E+02
 9.8253059E+01  6.2289728E+02
 9.8306503E+01  6.2523438E+02
 9.8359940E+01  6.2831311E+02
 9.8413383E+01  6.2847534E+02
 9.8466827E+01  6.2788928E+02
 9.8520271E+01  6.3087201E+02
 9.8573708E+01  6.3448291E+02
 9.8627151E+01  6.3556403E+02
 9.8680595E+01  6.3655328E+02
 9.8734039E+01  6.3272864E+02
 9.8787476E+01  6.2898376E+02
 9.8840919E+01  6.2994830E+02
 9.8894363E+01  6.3109979E+02
 9.8947800E+01  6.2991602E+02
 9.9001244E+01  6.3082086E+02
 9.9054688E+01  6.3360229E+02
 9.9108131E+01  6.3269391E+02
 9.9161568E+01  6.2958295E+02
 9.9215012E+01  6.2913568E+02
 9.9268456E+01  6.2800879E+02
 9.9321899E+01  6.2830096E+02
 9.9375336E+01  6.3191534E+02
 9.9428780E+01  6.2982794E+02
 9.9482224E+01  6.2899799E+02
 9.9535667E+01  6.2957288E+02
 9.9589104E+01  6.2550964E+02
 9.9642548E+01  6.2571863E+02
 9.9695992E+01  6.2416113E+02
 9.9749435E+01  6.2647125E+02
 9.9802872E+01  6.2280035E+02
 9.9856316E+01  6.2407648E+02
 9.9909760E+01  6.2469446E+02
 9.9963203E+01  6.2298779E+02
 1.0001664E+02  6.2187164E+02
 1.0007008E+02  6.2439343E+02
 1.0012353E+02  6.2199847E+02
 1.0017697E+02  6.2278699E+02
 1.0023041E+02  6.2237756E+02
 1.0028385E+02  6.1775195E+02
 1.0033730E+02  6.1771039E+02
 1.0039074E+02  6.1746234E+02
 1.0044418E+02  6.1962146E+02
 1.0049762E+02  6.2417938E+02
 1.0055106E+02  6.2541962E+02
 1.0060451E+02  6.2585529E+02
 1.0065794E+02  6.2512506E+02
 1.0071139E+02  6.2223358E+02
 1.0076483E+02  6.2013348E+02
 1.0081828E+02  6.1990228E+02
 1.0087171E+02  6.2372510E+02
 1.0092516E+02  6.2199939E+02
 1.0097860E+02  6.2407355E+02
 1.0103204E+02  6.2726398E+02
 1.0108548E+02  6.2393890E+02
 1.0113892E+02  6.2284729E+02
 1.0119237E+02  6.2430121E+02
 1.0124581E+02  6.2573022E+02
 1.0129925E+02  6.2337598E+02
 1.0135269E+02  6.2095947E+02
 1.0140614E+02  6.1941144E+02
 1.0145958E+02  6.1876807E+02
 1.0151302E+02  6.1729346E+02
 1.0156646E+02  6.1818610E+02
 1.0161990E+02  6.2064923E+02
 1.0167335E+02  6.1808783E+02
 1.0172678E+02  6.1302704E+02
 1.0178023E+02  6.1124982E+02
 1.0183367E+02  6.0904144E+02
 1.0188711E+02  6.0855707E+02
 1.0194055E+02  6.1106842E+02
 1.0199400E+02  6.0971155E+02
 1.0204744E+02  6.0800378E+02
 1.0210088E+02  6.0747083E+02
 1.0215432E+02  6.0788470E+02
 1.0220776E+02  6.1006061E+02
 1.0226121E+02  6.0888916E+02
 1.0231464E+02  6.0693896E+02
 1.0236809E+02  6.0496796E+02
 1.0242153E+02  6.0476648E+02
 1.0247498E+02  6.0329736E+02
 1.0252841E+02  5.9916724E+02
 1.0258186E+02  5.9739337E+02
 1.0263530E+02  5.9764423E+02
 1.0268874E+02  5.9736743E+02
 1.0274218E+02  5.9839404E+02
 1.0279562E+02  5.9820038E+02
 1.0284907E+02  5.9831165E+02
 1.0290251E+02  6.0077985E+02
 1.0295595E+02  6.0508099E+02
 1.0300939E+02  6.0599756E+02
 1.0306284E+02  6.0205798E+02
 1.0311628E+02  6.0276227E+02
 1.0316972E+02  5.9946295E+02
 1.0322316E+02  5.9914502E+02
 1.0327660E+02  6.0101874E+02
 1.0333005E+02  6.0401318E+02
 1.0338348E+02  6.0314752E+02
 1.0343693E+02  5.9863947E+02
 1.0349037E+02  5.9694312E+02
 1.0354382E+02  5.9476733E+02
 1.0359725E+02  5.9859009E+02
 1.0365070E+02  5.9888293E+02
 1.0370414E+02  5.9468335E+02
 1.0375758E+02  5.9370789E+02
 1.0381102E+02  5.9381671E+02
 1.0386446E+02  5.9032251E+02
 1.0391791E+02  5.9319220E+02
 1.0397135E+02  5.8943121E+02
 1.0402479E+02  5.8960187E+02
 1.0407823E+02  5.9256165E+02
 1.0413168E+02  5.9022632E+02
 1.0418512E+02  5.8884583E+02
 1.0423856E+02  5.8994434E+02
 1.0429200E+02  5.9130835E+02
 1.0434544E+02  5.9168402E+02
 1.0439889E+02  5.9277185E+02
 1.0445232E+02  5.9187396E+02
 1.0450577E+02  5.8844635E+02
 1.0455921E+02  5.8616986E+02
 1.0461266E+02  5.8558820E+02
 1.0466609E+02  5.8852881E+02
 1.0471954E+02  5.8885541E+02
 1.0477298E+02  5.8926166E+02
 1.0482642E+02  5.8477203E+02
 1.0487986E+02  5.8410620E+02
 1.0493330E+02  5.8320685E+02
 1.0498675E+02  5.8389978E+02
 1.0504018E+02  5.8499640E+02
 1.0509363E+02  5.9248749E+02
 1.0514707E+02  5.9309094E+02
 1.0520052E+02  5.9443188E+02
 1.0525395E+02  5.9631366E+02
 1.0530740E+02  5.9661060E+02
 1.0536084E+02  5.9561359E+02
 1.0541428E+02  5.9549683E+02
 1.0546772E+02  5.9325800E+02
 1.0552116E+02  5.9080499E+02
 1.0557461E+02  5.8868634E+02
 1.0562805E+02  5.8446161E+02
 1.0568149E+02  5.8619153E+02
 1.0573493E+02  5.8256256E+02
 1.0578838E+02  5.7765472E+02
 1.0584182E+02  5.7023279E+02
 1.0589526E+02  5.6889075E+02
 1.0594870E+02  5.6951105E+02
 1.0600214E+02  5.6878790E+02
 1.0605559E+02  5.6485583E+02
 1.0610902E+02  5.6408966E+02
 1.0616247E+02  5.6282922E+02
 1.0621591E+02  5.6076227E+02
 1.0626936E+02  5.5837091E+02
 1.0632279E+02  5.5650867E+02
 1.0637624E+02  5.5220581E+02
 1.0642968E+02  5.4782324E+02
 1.0648312E+02  5.4271600E+02
 1.0653656E+02  5.3969574E+02
 1.0659000E+02  5.3320807E+02
 1.0664345E+02  5.2860474E+02
 1.0669689E+02  5.2336243E+02
 1.0675033E+02  5.1837000E+02
 1.0680377E+02  5.1300311E+02
 1.0685722E+02  5.0756644E+02
 1.0691066E+02  5.0321304E+02
 1.0696410E+02  4.9993417E+02
 1.0701754E+02  4.9588708E+02
 1.0707098E+02  4.9033234E+02
 1.0712443E+02  4.8355347E+02
 1.0717786E+02  4.7452820E+02
 1.0723131E+02  4.7016965E+02
 1.0728475E+02  4.6985526E+02
 1.0733820E+02  4.6358591E+02
 1.0739163E+02  4.6019089E+02
 1.0744508E+02  4.5390372E+02
 1.0749852E+02  4.4786917E+02
 1.0755196E+02  4.4177777E+02
 1.0760540E+02  4.3677588E+02
 1.0765884E+02  4.2918423E+02
 1.0771229E+02  4.2166855E+02
 1.0776573E+02  4.1514688E+02
 1.0781917E+02  4.0860104E+02
 1.0787261E+02  4.0448703E+02
 1.0792606E+02  3.9787152E+02
 1.0797949E+02  3.9114352E+02
 1.0803294E+02  3.8246246E+02
 1.0808638E+02  3.7551855E+02
 1.0813982E+02  3.6868649E+02
 1.0819326E+02  3.5931543E+02
 1.0824670E+02  3.5105341E+02
 1.0830015E+02  3.4562830E+02
 1.0835359E+02  3.3993988E+02
 1.0840703E+02  3.3405054E+02
 1.0846047E+02  3.2508170E+02
 1.0851392E+02  3.1917804E+02
 1.0856736E+02  3.1297089E+02
 1.0862080E+02  3.1063330E+02
 1.0867424E+02  3.0397470E+02
 1.0872768E+02  2.9644641E+02
 1.0878113E+02  2.8952383E+02
 1.0883456E+02  2.8259283E+02
 1.0888801E+02  2.7578622E+02
 1.0894145E+02  2.7046909E+02
 1.0899490E+02  2.6688168E+02
 1.0904833E+02  2.6104053E+02
 1.0910178E+02  2.5939658E+02
 1.0915522E+02  2.5379897E+02
 1.0920866E+02  2.4947130E+02
 1.0926210E+02  2.4290402E+02
 1.0931554E+02  2.4003735E+02
 1.0936899E+02  2.3796199E+02
 1.0942243E+02  2.3705623E+02
