D:\ExperienceGI\Data_ESRF\hd570\HT2\HT2_034.mar3450: Q-Space Scan
Q (Inverse Nanometres)
Intensity
       2048
 2.6720984E-02  0.0000000E+00
 8.0162950E-02  0.0000000E+00
 1.3360491E-01  0.0000000E+00
 1.8704689E-01  0.0000000E+00
 2.4048886E-01  0.0000000E+00
 2.9393083E-01  0.0000000E+00
 3.4737280E-01  0.0000000E+00
 4.0081477E-01  0.0000000E+00
 4.5425671E-01  0.0000000E+00
 5.0769871E-01  0.0000000E+00
 5.6114066E-01  0.0000000E+00
 6.1458266E-01  0.0000000E+00
 6.6802460E-01  0.0000000E+00
 7.2146654E-01  0.0000000E+00
 7.7490854E-01  0.0000000E+00
 8.2835048E-01  0.0000000E+00
 8.8179249E-01  0.0000000E+00
 9.3523443E-01  0.0000000E+00
 9.8867643E-01  0.0000000E+00
 1.0421184E+00  0.0000000E+00
 1.0955603E+00  0.0000000E+00
 1.1490023E+00  0.0000000E+00
 1.2024443E+00  0.0000000E+00
 1.2558862E+00  0.0000000E+00
 1.3093282E+00  0.0000000E+00
 1.3627702E+00  0.0000000E+00
 1.4162122E+00  0.0000000E+00
 1.4696541E+00  0.0000000E+00
 1.5230961E+00  0.0000000E+00
 1.5765381E+00  0.0000000E+00
 1.6299800E+00  0.0000000E+00
 1.6834220E+00  0.0000000E+00
 1.7368640E+00  0.0000000E+00
 1.7903060E+00  0.0000000E+00
 1.8437479E+00  0.0000000E+00
 1.8971899E+00  0.0000000E+00
 1.9506319E+00  0.0000000E+00
 2.0040739E+00  0.0000000E+00
 2.0575159E+00  0.0000000E+00
 2.1109576E+00  0.0000000E+00
 2.1643996E+00  0.0000000E+00
 2.2178416E+00  0.0000000E+00
 2.2712836E+00  0.0000000E+00
 2.3247256E+00  0.0000000E+00
 2.3781676E+00  0.0000000E+00
 2.4316096E+00  0.0000000E+00
 2.4850514E+00  0.0000000E+00
 2.5384934E+00  0.0000000E+00
 2.5919354E+00  0.0000000E+00
 2.6453774E+00  0.0000000E+00
 2.6988194E+00  0.0000000E+00
 2.7522614E+00  0.0000000E+00
 2.8057034E+00  0.0000000E+00
 2.8591452E+00  0.0000000E+00
 2.9125872E+00  0.0000000E+00
 2.9660292E+00  0.0000000E+00
 3.0194712E+00  0.0000000E+00
 3.0729132E+00  0.0000000E+00
 3.1263552E+00  0.0000000E+00
 3.1797972E+00  0.0000000E+00
 3.2332389E+00  0.0000000E+00
 3.2866809E+00  0.0000000E+00
 3.3401229E+00  0.0000000E+00
 3.3935649E+00  1.9681154E+02
 3.4470069E+00  2.1563998E+02
 3.5004489E+00  2.6557614E+02
 3.5538909E+00  3.1314352E+02
 3.6073329E+00  3.4509729E+02
 3.6607747E+00  3.8861234E+02
 3.7142167E+00  4.3371008E+02
 3.7676587E+00  4.4767734E+02
 3.8211007E+00  4.5178940E+02
 3.8745427E+00  4.4553723E+02
 3.9279847E+00  4.4734079E+02
 3.9814267E+00  4.6808884E+02
 4.0348687E+00  4.8762207E+02
 4.0883107E+00  5.0474185E+02
 4.1417527E+00  5.1751770E+02
 4.1951942E+00  5.2347803E+02
 4.2486362E+00  5.2601910E+02
 4.3020782E+00  5.2901801E+02
 4.3555202E+00  5.3099445E+02
 4.4089622E+00  5.3031354E+02
 4.4624043E+00  5.3148065E+02
 4.5158463E+00  5.3713123E+02
 4.5692883E+00  5.4034076E+02
 4.6227303E+00  5.4125922E+02
 4.6761723E+00  5.4627338E+02
 4.7296143E+00  5.4939862E+02
 4.7830563E+00  5.5009967E+02
 4.8364983E+00  5.5341010E+02
 4.8899403E+00  5.5673920E+02
 4.9433818E+00  5.5870813E+02
 4.9968238E+00  5.5791656E+02
 5.0502658E+00  5.6095251E+02
 5.1037078E+00  5.6205115E+02
 5.1571498E+00  5.6268982E+02
 5.2105918E+00  5.6511780E+02
 5.2640338E+00  5.6960388E+02
 5.3174758E+00  5.7590533E+02
 5.3709178E+00  5.8011859E+02
 5.4243598E+00  5.8513153E+02
 5.4778018E+00  5.9322552E+02
 5.5312438E+00  6.0187567E+02
 5.5846858E+00  6.0658435E+02
 5.6381278E+00  6.1059082E+02
 5.6915698E+00  6.1515698E+02
 5.7450113E+00  6.1748407E+02
 5.7984533E+00  6.1934845E+02
 5.8518953E+00  6.2519983E+02
 5.9053373E+00  6.2878558E+02
 5.9587793E+00  6.3501062E+02
 6.0122213E+00  6.3436383E+02
 6.0656633E+00  6.3436835E+02
 6.1191053E+00  6.3526953E+02
 6.1725473E+00  6.3271265E+02
 6.2259893E+00  6.3359845E+02
 6.2794313E+00  6.3515338E+02
 6.3328733E+00  6.3622748E+02
 6.3863153E+00  6.3774561E+02
 6.4397573E+00  6.3860303E+02
 6.4931989E+00  6.3795776E+02
 6.5466409E+00  6.3668268E+02
 6.6000829E+00  6.3951520E+02
 6.6535249E+00  6.4033368E+02
 6.7069669E+00  6.3898047E+02
 6.7604089E+00  6.3752234E+02
 6.8138509E+00  6.3748108E+02
 6.8672929E+00  6.3865430E+02
 6.9207349E+00  6.4005780E+02
 6.9741769E+00  6.4274438E+02
 7.0276189E+00  6.4509595E+02
 7.0810609E+00  6.4617859E+02
 7.1345029E+00  6.4620410E+02
 7.1879449E+00  6.4744928E+02
 7.2413864E+00  6.4778125E+02
 7.2948284E+00  6.4909827E+02
 7.3482704E+00  6.4797705E+02
 7.4017124E+00  6.4763391E+02
 7.4551544E+00  6.4839587E+02
 7.5085964E+00  6.4890100E+02
 7.5620384E+00  6.4916064E+02
 7.6154804E+00  6.4960236E+02
 7.6689224E+00  6.4881738E+02
 7.7223644E+00  6.4565985E+02
 7.7758064E+00  6.4413177E+02
 7.8292484E+00  6.4373950E+02
 7.8826904E+00  6.4485229E+02
 7.9361324E+00  6.4505249E+02
 7.9895740E+00  6.4571198E+02
 8.0430164E+00  6.4717163E+02
 8.0964584E+00  6.5000787E+02
 8.1499004E+00  6.5627917E+02
 8.2033424E+00  6.5969440E+02
 8.2567844E+00  6.6455676E+02
 8.3102264E+00  6.6449994E+02
 8.3636675E+00  6.6709729E+02
 8.4171095E+00  6.6906464E+02
 8.4705515E+00  6.7074170E+02
 8.5239935E+00  6.7275171E+02
 8.5774355E+00  6.7281390E+02
 8.6308775E+00  6.7340186E+02
 8.6843195E+00  6.7311768E+02
 8.7377615E+00  6.7323083E+02
 8.7912035E+00  6.6987762E+02
 8.8446455E+00  6.6958075E+02
 8.8980875E+00  6.6778503E+02
 8.9515295E+00  6.6875354E+02
 9.0049715E+00  6.7017957E+02
 9.0584135E+00  6.6758673E+02
 9.1118555E+00  6.7065155E+02
 9.1652975E+00  6.7060693E+02
 9.2187395E+00  6.7197455E+02
 9.2721815E+00  6.7167316E+02
 9.3256235E+00  6.7032471E+02
 9.3790655E+00  6.6931982E+02
 9.4325075E+00  6.6858783E+02
 9.4859495E+00  6.7109296E+02
 9.5393915E+00  6.7032440E+02
 9.5928335E+00  6.7156165E+02
 9.6462755E+00  6.7335876E+02
 9.6997175E+00  6.7701642E+02
 9.7531595E+00  6.7794666E+02
 9.8066015E+00  6.7823596E+02
 9.8600435E+00  6.8039697E+02
 9.9134846E+00  6.8048975E+02
 9.9669266E+00  6.8217578E+02
 1.0020369E+01  6.8414832E+02
 1.0073811E+01  6.9033838E+02
 1.0127253E+01  6.9064813E+02
 1.0180695E+01  6.8990326E+02
 1.0234137E+01  6.9082721E+02
 1.0287579E+01  6.9180566E+02
 1.0341021E+01  6.9505597E+02
 1.0394463E+01  6.9510425E+02
 1.0447905E+01  6.9642493E+02
 1.0501347E+01  6.9732312E+02
 1.0554789E+01  7.0143115E+02
 1.0608231E+01  7.0446472E+02
 1.0661673E+01  7.0428442E+02
 1.0715115E+01  7.0918469E+02
 1.0768557E+01  7.1234033E+02
 1.0821999E+01  7.1534369E+02
 1.0875441E+01  7.1757214E+02
 1.0928883E+01  7.1770355E+02
 1.0982325E+01  7.1896552E+02
 1.1035767E+01  7.2063861E+02
 1.1089209E+01  7.2228546E+02
 1.1142651E+01  7.2505768E+02
 1.1196093E+01  7.2736053E+02
 1.1249535E+01  7.2890607E+02
 1.1302977E+01  7.3170660E+02
 1.1356419E+01  7.3091620E+02
 1.1409860E+01  7.3128558E+02
 1.1463302E+01  7.3355176E+02
 1.1516744E+01  7.3064600E+02
 1.1570186E+01  7.3221686E+02
 1.1623628E+01  7.3474530E+02
 1.1677070E+01  7.3407104E+02
 1.1730512E+01  7.3587744E+02
 1.1783954E+01  7.3544806E+02
 1.1837396E+01  7.3709747E+02
 1.1890838E+01  7.4071155E+02
 1.1944280E+01  7.4324683E+02
 1.1997722E+01  7.4194543E+02
 1.2051164E+01  7.4340924E+02
 1.2104606E+01  7.4591119E+02
 1.2158048E+01  7.4675128E+02
 1.2211490E+01  7.4935718E+02
 1.2264932E+01  7.5569849E+02
 1.2318374E+01  7.5985217E+02
 1.2371816E+01  7.6163928E+02
 1.2425258E+01  7.6172217E+02
 1.2478700E+01  7.6239252E+02
 1.2532142E+01  7.6351288E+02
 1.2585584E+01  7.6803058E+02
 1.2639026E+01  7.6987860E+02
 1.2692468E+01  7.6817279E+02
 1.2745910E+01  7.7252295E+02
 1.2799352E+01  7.7924518E+02
 1.2852794E+01  7.8085071E+02
 1.2906236E+01  7.8370673E+02
 1.2959677E+01  7.8683844E+02
 1.3013119E+01  7.9047485E+02
 1.3066561E+01  7.9176111E+02
 1.3120003E+01  7.9650452E+02
 1.3173445E+01  7.9837762E+02
 1.3226887E+01  8.0044592E+02
 1.3280329E+01  8.0473999E+02
 1.3333771E+01  8.0722375E+02
 1.3387213E+01  8.1148254E+02
 1.3440655E+01  8.1412732E+02
 1.3494097E+01  8.1629535E+02
 1.3547539E+01  8.1966901E+02
 1.3600981E+01  8.2311322E+02
 1.3654423E+01  8.2788385E+02
 1.3707865E+01  8.2909113E+02
 1.3761307E+01  8.3079767E+02
 1.3814749E+01  8.3516180E+02
 1.3868191E+01  8.4135901E+02
 1.3921633E+01  8.4378705E+02
 1.3975075E+01  8.4713751E+02
 1.4028517E+01  8.4944934E+02
 1.4081959E+01  8.5347058E+02
 1.4135401E+01  8.5820459E+02
 1.4188843E+01  8.5846832E+02
 1.4242285E+01  8.6312146E+02
 1.4295727E+01  8.6863159E+02
 1.4349169E+01  8.7452020E+02
 1.4402611E+01  8.7510822E+02
 1.4456052E+01  8.7903912E+02
 1.4509494E+01  8.8117279E+02
 1.4562936E+01  8.8182495E+02
 1.4616378E+01  8.8622406E+02
 1.4669820E+01  8.8962280E+02
 1.4723262E+01  8.9424426E+02
 1.4776704E+01  8.9573309E+02
 1.4830146E+01  8.9981873E+02
 1.4883588E+01  9.0299078E+02
 1.4937030E+01  9.0800378E+02
 1.4990472E+01  9.1378729E+02
 1.5043914E+01  9.1673352E+02
 1.5097356E+01  9.1862360E+02
 1.5150798E+01  9.2335211E+02
 1.5204240E+01  9.2826837E+02
 1.5257682E+01  9.3327643E+02
 1.5311124E+01  9.3815417E+02
 1.5364566E+01  9.4064099E+02
 1.5418008E+01  9.4555157E+02
 1.5471450E+01  9.5216754E+02
 1.5524892E+01  9.5435651E+02
 1.5578334E+01  9.5928925E+02
 1.5631776E+01  9.6112598E+02
 1.5685218E+01  9.6453748E+02
 1.5738660E+01  9.6855310E+02
 1.5792102E+01  9.7455029E+02
 1.5845544E+01  9.8019873E+02
 1.5898986E+01  9.8763184E+02
 1.5952428E+01  9.9562341E+02
 1.6005869E+01  1.0006355E+03
 1.6059311E+01  1.0064412E+03
 1.6112753E+01  1.0122190E+03
 1.6166195E+01  1.0207418E+03
 1.6219637E+01  1.0250032E+03
 1.6273079E+01  1.0319967E+03
 1.6326521E+01  1.0380409E+03
 1.6379963E+01  1.0430737E+03
 1.6433405E+01  1.0492023E+03
 1.6486847E+01  1.0561350E+03
 1.6540289E+01  1.0622344E+03
 1.6593731E+01  1.0698174E+03
 1.6647173E+01  1.0787791E+03
 1.6700615E+01  1.0819576E+03
 1.6754057E+01  1.0905211E+03
 1.6807499E+01  1.0988513E+03
 1.6860941E+01  1.1058142E+03
 1.6914383E+01  1.1144738E+03
 1.6967825E+01  1.1200803E+03
 1.7021267E+01  1.1291652E+03
 1.7074709E+01  1.1375476E+03
 1.7128151E+01  1.1460583E+03
 1.7181593E+01  1.1558776E+03
 1.7235035E+01  1.1670962E+03
 1.7288477E+01  1.1752393E+03
 1.7341919E+01  1.1855819E+03
 1.7395361E+01  1.1942626E+03
 1.7448803E+01  1.2033484E+03
 1.7502245E+01  1.2143361E+03
 1.7555687E+01  1.2288760E+03
 1.7609129E+01  1.2442924E+03
 1.7662571E+01  1.2542703E+03
 1.7716013E+01  1.2656412E+03
 1.7769455E+01  1.2821123E+03
 1.7822897E+01  1.2956627E+03
 1.7876339E+01  1.3105004E+03
 1.7929781E+01  1.3255995E+03
 1.7983223E+01  1.3384772E+03
 1.8036665E+01  1.3517263E+03
 1.8090107E+01  1.3678262E+03
 1.8143549E+01  1.3848291E+03
 1.8196991E+01  1.4008840E+03
 1.8250431E+01  1.4175436E+03
 1.8303873E+01  1.4340986E+03
 1.8357315E+01  1.4532722E+03
 1.8410757E+01  1.4738387E+03
 1.8464199E+01  1.4941796E+03
 1.8517641E+01  1.5117911E+03
 1.8571083E+01  1.5347521E+03
 1.8624525E+01  1.5541907E+03
 1.8677967E+01  1.5732797E+03
 1.8731409E+01  1.5985861E+03
 1.8784851E+01  1.6247295E+03
 1.8838293E+01  1.6469938E+03
 1.8891735E+01  1.6727609E+03
 1.8945177E+01  1.6995109E+03
 1.8998619E+01  1.7210613E+03
 1.9052061E+01  1.7488918E+03
 1.9105503E+01  1.7746166E+03
 1.9158945E+01  1.8028937E+03
 1.9212387E+01  1.8305469E+03
 1.9265829E+01  1.8599080E+03
 1.9319271E+01  1.8956343E+03
 1.9372713E+01  1.9267844E+03
 1.9426155E+01  1.9600564E+03
 1.9479597E+01  1.9907295E+03
 1.9533039E+01  2.0269348E+03
 1.9586481E+01  2.0633223E+03
 1.9639923E+01  2.1041377E+03
 1.9693365E+01  2.1424541E+03
 1.9746807E+01  2.1813589E+03
 1.9800249E+01  2.2183196E+03
 1.9853691E+01  2.2534248E+03
 1.9907133E+01  2.2923684E+03
 1.9960575E+01  2.3317769E+03
 2.0014017E+01  2.3708723E+03
 2.0067459E+01  2.4055330E+03
 2.0120901E+01  2.4438896E+03
 2.0174343E+01  2.4789910E+03
 2.0227785E+01  2.5137969E+03
 2.0281227E+01  2.5513542E+03
 2.0334669E+01  2.5864958E+03
 2.0388111E+01  2.6216819E+03
 2.0441553E+01  2.6584326E+03
 2.0494995E+01  2.6951802E+03
 2.0548437E+01  2.7295762E+03
 2.0601879E+01  2.7643755E+03
 2.0655321E+01  2.7994595E+03
 2.0708763E+01  2.8299106E+03
 2.0762205E+01  2.8577124E+03
 2.0815647E+01  2.8813442E+03
 2.0869089E+01  2.9003384E+03
 2.0922531E+01  2.9198469E+03
 2.0975973E+01  2.9354978E+03
 2.1029415E+01  2.9474292E+03
 2.1082857E+01  2.9643369E+03
 2.1136299E+01  2.9796033E+03
 2.1189741E+01  2.9832227E+03
 2.1243183E+01  2.9851545E+03
 2.1296623E+01  2.9890239E+03
 2.1350065E+01  2.9912339E+03
 2.1403507E+01  2.9911819E+03
 2.1456949E+01  2.9868972E+03
 2.1510391E+01  2.9784548E+03
 2.1563833E+01  2.9612031E+03
 2.1617275E+01  2.9487986E+03
 2.1670717E+01  2.9302456E+03
 2.1724159E+01  2.9109114E+03
 2.1777601E+01  2.8884016E+03
 2.1831043E+01  2.8603508E+03
 2.1884485E+01  2.8352312E+03
 2.1937927E+01  2.8099158E+03
 2.1991369E+01  2.7824187E+03
 2.2044811E+01  2.7489570E+03
 2.2098253E+01  2.7203362E+03
 2.2151695E+01  2.6948711E+03
 2.2205137E+01  2.6679983E+03
 2.2258579E+01  2.6370659E+03
 2.2312021E+01  2.6003179E+03
 2.2365463E+01  2.5625391E+03
 2.2418905E+01  2.5220183E+03
 2.2472347E+01  2.4866160E+03
 2.2525789E+01  2.4507693E+03
 2.2579231E+01  2.4188464E+03
 2.2632673E+01  2.3869336E+03
 2.2686115E+01  2.3518296E+03
 2.2739557E+01  2.3179841E+03
 2.2792999E+01  2.2878752E+03
 2.2846441E+01  2.2555042E+03
 2.2899883E+01  2.2274563E+03
 2.2953325E+01  2.1990291E+03
 2.3006767E+01  2.1698540E+03
 2.3060209E+01  2.1386785E+03
 2.3113651E+01  2.1111533E+03
 2.3167093E+01  2.0825613E+03
 2.3220535E+01  2.0548652E+03
 2.3273977E+01  2.0290697E+03
 2.3327419E+01  2.0048074E+03
 2.3380861E+01  1.9779761E+03
 2.3434303E+01  1.9495103E+03
 2.3487745E+01  1.9260603E+03
 2.3541187E+01  1.9035011E+03
 2.3594629E+01  1.8832618E+03
 2.3648071E+01  1.8637711E+03
 2.3701513E+01  1.8442052E+03
 2.3754955E+01  1.8217273E+03
 2.3808397E+01  1.8023510E+03
 2.3861839E+01  1.7802513E+03
 2.3915281E+01  1.7638174E+03
 2.3968723E+01  1.7483823E+03
 2.4022165E+01  1.7290571E+03
 2.4075607E+01  1.7146899E+03
 2.4129049E+01  1.6996383E+03
 2.4182491E+01  1.6842950E+03
 2.4235933E+01  1.6672661E+03
 2.4289375E+01  1.6547898E+03
 2.4342815E+01  1.6391816E+03
 2.4396257E+01  1.6244960E+03
 2.4449699E+01  1.6111063E+03
 2.4503141E+01  1.5966858E+03
 2.4556583E+01  1.5847544E+03
 2.4610025E+01  1.5747721E+03
 2.4663467E+01  1.5643098E+03
 2.4716909E+01  1.5543496E+03
 2.4770351E+01  1.5438257E+03
 2.4823793E+01  1.5331832E+03
 2.4877235E+01  1.5243602E+03
 2.4930677E+01  1.5193481E+03
 2.4984119E+01  1.5197925E+03
 2.5037561E+01  1.5202660E+03
 2.5091003E+01  1.5154934E+03
 2.5144445E+01  1.5019091E+03
 2.5197887E+01  1.4848721E+03
 2.5251329E+01  1.4655409E+03
 2.5304771E+01  1.4538643E+03
 2.5358213E+01  1.4470846E+03
 2.5411655E+01  1.4413009E+03
 2.5465097E+01  1.4284219E+03
 2.5518539E+01  1.4215026E+03
 2.5571981E+01  1.4205159E+03
 2.5625423E+01  1.4160723E+03
 2.5678865E+01  1.4097531E+03
 2.5732307E+01  1.4024513E+03
 2.5785749E+01  1.3975741E+03
 2.5839191E+01  1.3938555E+03
 2.5892633E+01  1.3890529E+03
 2.5946075E+01  1.3824188E+03
 2.5999517E+01  1.3794617E+03
 2.6052959E+01  1.3733322E+03
 2.6106401E+01  1.3720911E+03
 2.6159843E+01  1.3690193E+03
 2.6213285E+01  1.3656658E+03
 2.6266727E+01  1.3620950E+03
 2.6320169E+01  1.3571106E+03
 2.6373611E+01  1.3505602E+03
 2.6427053E+01  1.3452570E+03
 2.6480495E+01  1.3398474E+03
 2.6533937E+01  1.3334569E+03
 2.6587379E+01  1.3273807E+03
 2.6640821E+01  1.3234768E+03
 2.6694263E+01  1.3218981E+03
 2.6747705E+01  1.3203795E+03
 2.6801147E+01  1.3146206E+03
 2.6854589E+01  1.3108206E+03
 2.6908031E+01  1.3080409E+03
 2.6961473E+01  1.3044637E+03
 2.7014915E+01  1.3018632E+03
 2.7068357E+01  1.2955864E+03
 2.7121799E+01  1.2892212E+03
 2.7175241E+01  1.2848462E+03
 2.7228683E+01  1.2811937E+03
 2.7282125E+01  1.2781663E+03
 2.7335567E+01  1.2735566E+03
 2.7389008E+01  1.2684884E+03
 2.7442450E+01  1.2679634E+03
 2.7495892E+01  1.2654302E+03
 2.7549334E+01  1.2572134E+03
 2.7602776E+01  1.2519822E+03
 2.7656218E+01  1.2516544E+03
 2.7709660E+01  1.2503739E+03
 2.7763102E+01  1.2494136E+03
 2.7816544E+01  1.2461765E+03
 2.7869986E+01  1.2460477E+03
 2.7923428E+01  1.2427854E+03
 2.7976870E+01  1.2411200E+03
 2.8030312E+01  1.2421859E+03
 2.8083754E+01  1.2416675E+03
 2.8137196E+01  1.2404482E+03
 2.8190638E+01  1.2368070E+03
 2.8244080E+01  1.2347422E+03
 2.8297522E+01  1.2357179E+03
 2.8350964E+01  1.2333809E+03
 2.8404406E+01  1.2317002E+03
 2.8457848E+01  1.2270002E+03
 2.8511290E+01  1.2216160E+03
 2.8564732E+01  1.2175060E+03
 2.8618174E+01  1.2143719E+03
 2.8671616E+01  1.2112432E+03
 2.8725058E+01  1.2068185E+03
 2.8778500E+01  1.2063724E+03
 2.8831942E+01  1.2079581E+03
 2.8885384E+01  1.2068477E+03
 2.8938826E+01  1.2032396E+03
 2.8992268E+01  1.1997050E+03
 2.9045710E+01  1.1989919E+03
 2.9099152E+01  1.1981293E+03
 2.9152594E+01  1.1961322E+03
 2.9206036E+01  1.1955745E+03
 2.9259478E+01  1.1969082E+03
 2.9312920E+01  1.1960663E+03
 2.9366362E+01  1.1945123E+03
 2.9419804E+01  1.1943334E+03
 2.9473246E+01  1.1916901E+03
 2.9526688E+01  1.1922803E+03
 2.9580130E+01  1.1911304E+03
 2.9633572E+01  1.1905076E+03
 2.9687014E+01  1.1891440E+03
 2.9740456E+01  1.1882974E+03
 2.9793898E+01  1.1890287E+03
 2.9847340E+01  1.1893624E+03
 2.9900782E+01  1.1878427E+03
 2.9954224E+01  1.1873658E+03
 3.0007666E+01  1.1882401E+03
 3.0061108E+01  1.1898956E+03
 3.0114550E+01  1.1900043E+03
 3.0167992E+01  1.1869397E+03
 3.0221434E+01  1.1871547E+03
 3.0274876E+01  1.1860419E+03
 3.0328318E+01  1.1838911E+03
 3.0381760E+01  1.1862096E+03
 3.0435200E+01  1.1855248E+03
 3.0488642E+01  1.1863469E+03
 3.0542084E+01  1.1888176E+03
 3.0595526E+01  1.1850546E+03
 3.0648968E+01  1.1819763E+03
 3.0702410E+01  1.1825087E+03
 3.0755852E+01  1.1838885E+03
 3.0809294E+01  1.1841217E+03
 3.0862736E+01  1.1836566E+03
 3.0916178E+01  1.1848649E+03
 3.0969620E+01  1.1868706E+03
 3.1023062E+01  1.1877080E+03
 3.1076504E+01  1.1908300E+03
 3.1129946E+01  1.1915050E+03
 3.1183388E+01  1.1938855E+03
 3.1236830E+01  1.1926017E+03
 3.1290272E+01  1.1887405E+03
 3.1343714E+01  1.1869458E+03
 3.1397156E+01  1.1879014E+03
 3.1450598E+01  1.1846295E+03
 3.1504040E+01  1.1883927E+03
 3.1557482E+01  1.1892787E+03
 3.1610924E+01  1.1869490E+03
 3.1664366E+01  1.1889543E+03
 3.1717808E+01  1.1908856E+03
 3.1771250E+01  1.1934688E+03
 3.1824692E+01  1.1955458E+03
 3.1878134E+01  1.1984824E+03
 3.1931576E+01  1.2005905E+03
 3.1985018E+01  1.2018396E+03
 3.2038460E+01  1.2019232E+03
 3.2091900E+01  1.2026630E+03
 3.2145344E+01  1.2028315E+03
 3.2198784E+01  1.2045343E+03
 3.2252228E+01  1.2022982E+03
 3.2305668E+01  1.2012042E+03
 3.2359112E+01  1.2022711E+03
 3.2412552E+01  1.2012876E+03
 3.2465996E+01  1.2049125E+03
 3.2519436E+01  1.2054197E+03
 3.2572880E+01  1.2059426E+03
 3.2626320E+01  1.2095323E+03
 3.2679764E+01  1.2102716E+03
 3.2733204E+01  1.2112466E+03
 3.2786648E+01  1.2116603E+03
 3.2840088E+01  1.2129365E+03
 3.2893532E+01  1.2139980E+03
 3.2946972E+01  1.2135364E+03
 3.3000416E+01  1.2177501E+03
 3.3053856E+01  1.2222338E+03
 3.3107300E+01  1.2267092E+03
 3.3160740E+01  1.2269175E+03
 3.3214184E+01  1.2290288E+03
 3.3267624E+01  1.2312913E+03
 3.3321068E+01  1.2387491E+03
 3.3374508E+01  1.2574991E+03
 3.3427952E+01  1.2867543E+03
 3.3481392E+01  1.3047571E+03
 3.3534836E+01  1.3010035E+03
 3.3588276E+01  1.2768625E+03
 3.3641720E+01  1.2564056E+03
 3.3695160E+01  1.2460129E+03
 3.3748604E+01  1.2418176E+03
 3.3802044E+01  1.2421277E+03
 3.3855488E+01  1.2429167E+03
 3.3908928E+01  1.2438010E+03
 3.3962372E+01  1.2429324E+03
 3.4015812E+01  1.2435491E+03
 3.4069256E+01  1.2414816E+03
 3.4122696E+01  1.2417902E+03
 3.4176140E+01  1.2411328E+03
 3.4229580E+01  1.2417729E+03
 3.4283024E+01  1.2458865E+03
 3.4336464E+01  1.2447650E+03
 3.4389908E+01  1.2443870E+03
 3.4443348E+01  1.2432722E+03
 3.4496792E+01  1.2438311E+03
 3.4550232E+01  1.2437598E+03
 3.4603676E+01  1.2456124E+03
 3.4657116E+01  1.2452281E+03
 3.4710560E+01  1.2476986E+03
 3.4764000E+01  1.2498705E+03
 3.4817444E+01  1.2531212E+03
 3.4870884E+01  1.2502551E+03
 3.4924328E+01  1.2502837E+03
 3.4977768E+01  1.2483635E+03
 3.5031208E+01  1.2520770E+03
 3.5084652E+01  1.2555457E+03
 3.5138092E+01  1.2538577E+03
 3.5191536E+01  1.2548348E+03
 3.5244976E+01  1.2568026E+03
 3.5298420E+01  1.2569005E+03
 3.5351860E+01  1.2598569E+03
 3.5405304E+01  1.2623824E+03
 3.5458744E+01  1.2614121E+03
 3.5512188E+01  1.2604390E+03
 3.5565628E+01  1.2604598E+03
 3.5619072E+01  1.2656583E+03
 3.5672512E+01  1.2659667E+03
 3.5725956E+01  1.2652039E+03
 3.5779396E+01  1.2673827E+03
 3.5832840E+01  1.2686652E+03
 3.5886280E+01  1.2709532E+03
 3.5939724E+01  1.2712690E+03
 3.5993164E+01  1.2709630E+03
 3.6046608E+01  1.2741974E+03
 3.6100048E+01  1.2755575E+03
 3.6153492E+01  1.2768470E+03
 3.6206932E+01  1.2808292E+03
 3.6260376E+01  1.2827390E+03
 3.6313816E+01  1.2824496E+03
 3.6367260E+01  1.2862972E+03
 3.6420700E+01  1.2860896E+03
 3.6474144E+01  1.2882765E+03
 3.6527584E+01  1.2890112E+03
 3.6581028E+01  1.2918566E+03
 3.6634468E+01  1.2955375E+03
 3.6687912E+01  1.2945892E+03
 3.6741352E+01  1.2928368E+03
 3.6794796E+01  1.2919075E+03
 3.6848236E+01  1.2918436E+03
 3.6901680E+01  1.2949644E+03
 3.6955120E+01  1.2969829E+03
 3.7008564E+01  1.3005105E+03
 3.7062004E+01  1.3020204E+03
 3.7115448E+01  1.3025253E+03
 3.7168888E+01  1.3035029E+03
 3.7222332E+01  1.3062288E+03
 3.7275772E+01  1.3067267E+03
 3.7329216E+01  1.3084109E+03
 3.7382656E+01  1.3095348E+03
 3.7436100E+01  1.3073667E+03
 3.7489540E+01  1.3031499E+03
 3.7542984E+01  1.3057869E+03
 3.7596424E+01  1.3068351E+03
 3.7649868E+01  1.3066732E+03
 3.7703308E+01  1.3062648E+03
 3.7756752E+01  1.3075126E+03
 3.7810192E+01  1.3088241E+03
 3.7863636E+01  1.3101780E+03
 3.7917076E+01  1.3112854E+03
 3.7970520E+01  1.3110378E+03
 3.8023960E+01  1.3100215E+03
 3.8077400E+01  1.3125476E+03
 3.8130844E+01  1.3123872E+03
 3.8184284E+01  1.3126193E+03
 3.8237728E+01  1.3119641E+03
 3.8291168E+01  1.3088821E+03
 3.8344612E+01  1.3095374E+03
 3.8398052E+01  1.3084927E+03
 3.8451496E+01  1.3105103E+03
 3.8504936E+01  1.3101660E+03
 3.8558380E+01  1.3079490E+03
 3.8611820E+01  1.3037809E+03
 3.8665264E+01  1.3020846E+03
 3.8718704E+01  1.2982040E+03
 3.8772148E+01  1.2946310E+03
 3.8825588E+01  1.2926342E+03
 3.8879032E+01  1.2923063E+03
 3.8932472E+01  1.2921187E+03
 3.8985916E+01  1.2873896E+03
 3.9039356E+01  1.2884213E+03
 3.9092800E+01  1.2856899E+03
 3.9146240E+01  1.2831647E+03
 3.9199684E+01  1.2810637E+03
 3.9253124E+01  1.2788308E+03
 3.9306568E+01  1.2765601E+03
 3.9360008E+01  1.2742991E+03
 3.9413452E+01  1.2725292E+03
 3.9466892E+01  1.2734034E+03
 3.9520336E+01  1.2730741E+03
 3.9573776E+01  1.2724794E+03
 3.9627220E+01  1.2701898E+03
 3.9680660E+01  1.2684108E+03
 3.9734104E+01  1.2733666E+03
 3.9787544E+01  1.2768816E+03
 3.9840988E+01  1.2764468E+03
 3.9894428E+01  1.2737502E+03
 3.9947872E+01  1.2710940E+03
 4.0001312E+01  1.2716058E+03
 4.0054756E+01  1.2689576E+03
 4.0108196E+01  1.2642310E+03
 4.0161640E+01  1.2638870E+03
 4.0215080E+01  1.2616680E+03
 4.0268524E+01  1.2602783E+03
 4.0321964E+01  1.2539253E+03
 4.0375408E+01  1.2517391E+03
 4.0428848E+01  1.2485206E+03
 4.0482292E+01  1.2439362E+03
 4.0535732E+01  1.2436768E+03
 4.0589176E+01  1.2449906E+03
 4.0642616E+01  1.2424048E+03
 4.0696060E+01  1.2378356E+03
 4.0749500E+01  1.2396168E+03
 4.0802944E+01  1.2401707E+03
 4.0856384E+01  1.2366829E+03
 4.0909828E+01  1.2334187E+03
 4.0963268E+01  1.2321243E+03
 4.1016712E+01  1.2323522E+03
 4.1070152E+01  1.2286396E+03
 4.1123592E+01  1.2260930E+03
 4.1177036E+01  1.2232190E+03
 4.1230476E+01  1.2207473E+03
 4.1283920E+01  1.2168644E+03
 4.1337360E+01  1.2159479E+03
 4.1390804E+01  1.2125874E+03
 4.1444244E+01  1.2113566E+03
 4.1497688E+01  1.2096345E+03
 4.1551128E+01  1.2083964E+03
 4.1604572E+01  1.2082675E+03
 4.1658012E+01  1.2051100E+03
 4.1711456E+01  1.2056823E+03
 4.1764896E+01  1.2015049E+03
 4.1818340E+01  1.1967677E+03
 4.1871780E+01  1.1942333E+03
 4.1925224E+01  1.1963842E+03
 4.1978664E+01  1.1942887E+03
 4.2032108E+01  1.1899694E+03
 4.2085548E+01  1.1888224E+03
 4.2138992E+01  1.1877212E+03
 4.2192432E+01  1.1836779E+03
 4.2245876E+01  1.1841492E+03
 4.2299316E+01  1.1847455E+03
 4.2352760E+01  1.1826046E+03
 4.2406200E+01  1.1817368E+03
 4.2459644E+01  1.1813051E+03
 4.2513084E+01  1.1771195E+03
 4.2566528E+01  1.1718055E+03
 4.2619968E+01  1.1673174E+03
 4.2673412E+01  1.1686139E+03
 4.2726852E+01  1.1665502E+03
 4.2780296E+01  1.1645988E+03
 4.2833736E+01  1.1635905E+03
 4.2887180E+01  1.1622219E+03
 4.2940620E+01  1.1599175E+03
 4.2994064E+01  1.1591776E+03
 4.3047504E+01  1.1599089E+03
 4.3100948E+01  1.1629257E+03
 4.3154388E+01  1.1668290E+03
 4.3207832E+01  1.1715487E+03
 4.3261272E+01  1.1756639E+03
 4.3314716E+01  1.1712986E+03
 4.3368156E+01  1.1630046E+03
 4.3421600E+01  1.1532017E+03
 4.3475040E+01  1.1447826E+03
 4.3528484E+01  1.1391432E+03
 4.3581924E+01  1.1362061E+03
 4.3635368E+01  1.1338971E+03
 4.3688808E+01  1.1339141E+03
 4.3742252E+01  1.1326450E+03
 4.3795692E+01  1.1345913E+03
 4.3849136E+01  1.1340364E+03
 4.3902576E+01  1.1296106E+03
 4.3956020E+01  1.1294292E+03
 4.4009460E+01  1.1278286E+03
 4.4062904E+01  1.1265228E+03
 4.4116344E+01  1.1261624E+03
 4.4169785E+01  1.1248867E+03
 4.4223228E+01  1.1234489E+03
 4.4276669E+01  1.1230341E+03
 4.4330112E+01  1.1196383E+03
 4.4383553E+01  1.1155281E+03
 4.4436996E+01  1.1121801E+03
 4.4490437E+01  1.1114684E+03
 4.4543880E+01  1.1101608E+03
 4.4597321E+01  1.1073103E+03
 4.4650764E+01  1.1054275E+03
 4.4704205E+01  1.1023431E+03
 4.4757648E+01  1.1010891E+03
 4.4811089E+01  1.0970956E+03
 4.4864532E+01  1.0985791E+03
 4.4917973E+01  1.0981379E+03
 4.4971416E+01  1.0970931E+03
 4.5024857E+01  1.0972067E+03
 4.5078300E+01  1.0956975E+03
 4.5131741E+01  1.0959469E+03
 4.5185184E+01  1.0992292E+03
 4.5238625E+01  1.0986909E+03
 4.5292068E+01  1.0971173E+03
 4.5345509E+01  1.0982430E+03
 4.5398952E+01  1.0981577E+03
 4.5452393E+01  1.0935151E+03
 4.5505836E+01  1.0920354E+03
 4.5559277E+01  1.0864020E+03
 4.5612720E+01  1.0840743E+03
 4.5666161E+01  1.0843195E+03
 4.5719604E+01  1.0821991E+03
 4.5773045E+01  1.0819944E+03
 4.5826488E+01  1.0846162E+03
 4.5879929E+01  1.0859857E+03
 4.5933372E+01  1.0861847E+03
 4.5986813E+01  1.0862432E+03
 4.6040257E+01  1.0849388E+03
 4.6093697E+01  1.0791057E+03
 4.6147141E+01  1.0740183E+03
 4.6200581E+01  1.0670364E+03
 4.6254025E+01  1.0614769E+03
 4.6307465E+01  1.0591377E+03
 4.6360909E+01  1.0548976E+03
 4.6414349E+01  1.0497156E+03
 4.6467793E+01  1.0461794E+03
 4.6521233E+01  1.0444974E+03
 4.6574677E+01  1.0425306E+03
 4.6628117E+01  1.0411899E+03
 4.6681561E+01  1.0393569E+03
 4.6735001E+01  1.0364122E+03
 4.6788445E+01  1.0328354E+03
 4.6841885E+01  1.0315819E+03
 4.6895329E+01  1.0264866E+03
 4.6948769E+01  1.0236399E+03
 4.7002213E+01  1.0202611E+03
 4.7055653E+01  1.0181582E+03
 4.7109097E+01  1.0178794E+03
 4.7162537E+01  1.0129087E+03
 4.7215977E+01  1.0095629E+03
 4.7269421E+01  1.0077857E+03
 4.7322861E+01  1.0066539E+03
 4.7376305E+01  1.0093873E+03
 4.7429745E+01  1.0078873E+03
 4.7483189E+01  1.0072648E+03
 4.7536629E+01  1.0041682E+03
 4.7590073E+01  1.0009132E+03
 4.7643513E+01  1.0014776E+03
 4.7696957E+01  1.0023746E+03
 4.7750397E+01  1.0027114E+03
 4.7803841E+01  1.0025654E+03
 4.7857281E+01  1.0019257E+03
 4.7910725E+01  9.9957892E+02
 4.7964165E+01  9.9998871E+02
 4.8017609E+01  1.0015231E+03
 4.8071049E+01  1.0009103E+03
 4.8124493E+01  9.9792261E+02
 4.8177933E+01  9.9953192E+02
 4.8231377E+01  1.0001775E+03
 4.8284817E+01  1.0045410E+03
 4.8338261E+01  1.0081442E+03
 4.8391701E+01  1.0119565E+03
 4.8445145E+01  1.0193763E+03
 4.8498585E+01  1.0285909E+03
 4.8552029E+01  1.0369878E+03
 4.8605469E+01  1.0397101E+03
 4.8658913E+01  1.0312572E+03
 4.8712353E+01  1.0197219E+03
 4.8765797E+01  1.0119230E+03
 4.8819237E+01  1.0087541E+03
 4.8872681E+01  1.0072927E+03
 4.8926121E+01  1.0053215E+03
 4.8979565E+01  1.0058400E+03
 4.9033005E+01  1.0069118E+03
 4.9086449E+01  1.0087628E+03
 4.9139889E+01  1.0093187E+03
 4.9193333E+01  1.0093258E+03
 4.9246773E+01  1.0043743E+03
 4.9300217E+01  1.0017045E+03
 4.9353657E+01  1.0021888E+03
 4.9407101E+01  9.9931091E+02
 4.9460541E+01  1.0006722E+03
 4.9513985E+01  1.0034988E+03
 4.9567425E+01  1.0081639E+03
 4.9620869E+01  1.0090831E+03
 4.9674309E+01  1.0106552E+03
 4.9727753E+01  1.0145366E+03
 4.9781193E+01  1.0140375E+03
 4.9834637E+01  1.0150385E+03
 4.9888077E+01  1.0191476E+03
 4.9941521E+01  1.0187669E+03
 4.9994961E+01  1.0154768E+03
 5.0048405E+01  1.0077853E+03
 5.0101845E+01  1.0029399E+03
 5.0155289E+01  9.9744733E+02
 5.0208729E+01  9.9387335E+02
 5.0262169E+01  9.9434473E+02
 5.0315613E+01  9.9307782E+02
 5.0369053E+01  9.8911340E+02
 5.0422497E+01  9.8514227E+02
 5.0475937E+01  9.8372870E+02
 5.0529381E+01  9.8428223E+02
 5.0582821E+01  9.8281134E+02
 5.0636265E+01  9.8140601E+02
 5.0689705E+01  9.8503491E+02
 5.0743149E+01  9.8966858E+02
 5.0796589E+01  9.9510565E+02
 5.0850033E+01  1.0019495E+03
 5.0903473E+01  9.9794904E+02
 5.0956917E+01  9.9085626E+02
 5.1010357E+01  9.8717719E+02
 5.1063801E+01  9.8502197E+02
 5.1117241E+01  9.8036432E+02
 5.1170685E+01  9.7864020E+02
 5.1224125E+01  9.7793445E+02
 5.1277569E+01  9.7592554E+02
 5.1331009E+01  9.7645941E+02
 5.1384453E+01  9.7308826E+02
 5.1437893E+01  9.7201245E+02
 5.1491337E+01  9.7539020E+02
 5.1544777E+01  9.7513147E+02
 5.1598221E+01  9.7492535E+02
 5.1651661E+01  9.7614624E+02
 5.1705105E+01  9.7329211E+02
 5.1758545E+01  9.7343445E+02
 5.1811989E+01  9.7294427E+02
 5.1865429E+01  9.7344922E+02
 5.1918873E+01  9.7415363E+02
 5.1972313E+01  9.7312280E+02
 5.2025757E+01  9.6833118E+02
 5.2079197E+01  9.6859924E+02
 5.2132641E+01  9.7020728E+02
 5.2186081E+01  9.7333124E+02
 5.2239525E+01  9.7339648E+02
 5.2292965E+01  9.7195160E+02
 5.2346409E+01  9.7135437E+02
 5.2399849E+01  9.6902423E+02
 5.2453293E+01  9.6661639E+02
 5.2506733E+01  9.6861456E+02
 5.2560177E+01  9.6815460E+02
 5.2613617E+01  9.6922601E+02
 5.2667061E+01  9.7028461E+02
 5.2720501E+01  9.7116730E+02
 5.2773945E+01  9.7282068E+02
 5.2827385E+01  9.7289856E+02
 5.2880829E+01  9.7677185E+02
 5.2934269E+01  9.7925507E+02
 5.2987713E+01  9.7810583E+02
 5.3041153E+01  9.7867010E+02
 5.3094597E+01  9.7885626E+02
 5.3148037E+01  9.7680737E+02
 5.3201481E+01  9.7718921E+02
 5.3254921E+01  9.7973724E+02
 5.3308361E+01  9.7692059E+02
 5.3361805E+01  9.7608203E+02
 5.3415245E+01  9.7612811E+02
 5.3468689E+01  9.7719122E+02
 5.3522129E+01  9.7451184E+02
 5.3575573E+01  9.7403607E+02
 5.3629013E+01  9.7866760E+02
 5.3682457E+01  9.8451086E+02
 5.3735897E+01  9.8406378E+02
 5.3789341E+01  9.8206995E+02
 5.3842781E+01  9.8207434E+02
 5.3896225E+01  9.8048474E+02
 5.3949665E+01  9.8318890E+02
 5.4003109E+01  9.8329095E+02
 5.4056549E+01  9.8162720E+02
 5.4109993E+01  9.8137543E+02
 5.4163433E+01  9.8139624E+02
 5.4216877E+01  9.8089362E+02
 5.4270317E+01  9.8110046E+02
 5.4323761E+01  9.7919946E+02
 5.4377201E+01  9.7952826E+02
 5.4430645E+01  9.8354071E+02
 5.4484085E+01  9.8611353E+02
 5.4537529E+01  9.8601373E+02
 5.4590969E+01  9.8808472E+02
 5.4644413E+01  9.8828723E+02
 5.4697853E+01  9.8573517E+02
 5.4751297E+01  9.8200531E+02
 5.4804737E+01  9.7837103E+02
 5.4858181E+01  9.7427740E+02
 5.4911621E+01  9.7148004E+02
 5.4965065E+01  9.7127728E+02
 5.5018505E+01  9.7236963E+02
 5.5071949E+01  9.7572522E+02
 5.5125389E+01  9.7443658E+02
 5.5178833E+01  9.7092474E+02
 5.5232273E+01  9.6940479E+02
 5.5285717E+01  9.6967133E+02
 5.5339157E+01  9.7168585E+02
 5.5392601E+01  9.7137909E+02
 5.5446041E+01  9.7274530E+02
 5.5499485E+01  9.7237189E+02
 5.5552925E+01  9.7154376E+02
 5.5606369E+01  9.7078351E+02
 5.5659809E+01  9.6940234E+02
 5.5713253E+01  9.6935693E+02
 5.5766693E+01  9.6866669E+02
 5.5820137E+01  9.6893738E+02
 5.5873577E+01  9.7102264E+02
 5.5927021E+01  9.7083862E+02
 5.5980461E+01  9.6810413E+02
 5.6033905E+01  9.6695105E+02
 5.6087345E+01  9.6818713E+02
 5.6140789E+01  9.6495825E+02
 5.6194229E+01  9.6409747E+02
 5.6247669E+01  9.6291052E+02
 5.6301113E+01  9.6348895E+02
 5.6354553E+01  9.6272577E+02
 5.6407997E+01  9.6277332E+02
 5.6461437E+01  9.6714703E+02
 5.6514881E+01  9.6537457E+02
 5.6568321E+01  9.6208594E+02
 5.6621765E+01  9.6373853E+02
 5.6675205E+01  9.6501672E+02
 5.6728649E+01  9.6041663E+02
 5.6782089E+01  9.6024152E+02
 5.6835533E+01  9.5843250E+02
 5.6888973E+01  9.5566595E+02
 5.6942417E+01  9.5276996E+02
 5.6995857E+01  9.5103613E+02
 5.7049301E+01  9.4976727E+02
 5.7102741E+01  9.4865723E+02
 5.7156185E+01  9.4904535E+02
 5.7209625E+01  9.4973975E+02
 5.7263069E+01  9.4893860E+02
 5.7316509E+01  9.4706824E+02
 5.7369953E+01  9.4772345E+02
 5.7423393E+01  9.4798639E+02
 5.7476837E+01  9.4325940E+02
 5.7530277E+01  9.4196497E+02
 5.7583721E+01  9.4559119E+02
 5.7637161E+01  9.4595575E+02
 5.7690605E+01  9.4433270E+02
 5.7744045E+01  9.4184344E+02
 5.7797489E+01  9.3859204E+02
 5.7850929E+01  9.3486511E+02
 5.7904373E+01  9.3683948E+02
 5.7957813E+01  9.3354242E+02
 5.8011257E+01  9.3153094E+02
 5.8064697E+01  9.3027197E+02
 5.8118141E+01  9.3074353E+02
 5.8171581E+01  9.3267694E+02
 5.8225025E+01  9.3100409E+02
 5.8278465E+01  9.3107458E+02
 5.8331909E+01  9.2894482E+02
 5.8385349E+01  9.2828223E+02
 5.8438793E+01  9.2784955E+02
 5.8492233E+01  9.2881525E+02
 5.8545677E+01  9.3048755E+02
 5.8599117E+01  9.3020886E+02
 5.8652561E+01  9.2542828E+02
 5.8706001E+01  9.2480701E+02
 5.8759445E+01  9.2431207E+02
 5.8812885E+01  9.2059912E+02
 5.8866329E+01  9.1885986E+02
 5.8919769E+01  9.1765393E+02
 5.8973213E+01  9.1733258E+02
 5.9026653E+01  9.1449646E+02
 5.9080097E+01  9.1473523E+02
 5.9133537E+01  9.1319849E+02
 5.9186981E+01  9.1341534E+02
 5.9240421E+01  9.1058667E+02
 5.9293861E+01  9.0969049E+02
 5.9347305E+01  9.0896356E+02
 5.9400745E+01  9.0734735E+02
 5.9454189E+01  9.0471442E+02
 5.9507629E+01  9.0560028E+02
 5.9561073E+01  9.0762274E+02
 5.9614513E+01  9.0744250E+02
 5.9667957E+01  9.0747705E+02
 5.9721397E+01  9.0510260E+02
 5.9774841E+01  9.0433569E+02
 5.9828281E+01  9.0567633E+02
 5.9881725E+01  9.0216858E+02
 5.9935165E+01  9.0010492E+02
 5.9988609E+01  9.0086639E+02
 6.0042049E+01  9.0145862E+02
 6.0095493E+01  9.0118042E+02
 6.0148933E+01  8.9884766E+02
 6.0202377E+01  8.9680701E+02
 6.0255817E+01  8.9885931E+02
 6.0309261E+01  8.9698517E+02
 6.0362701E+01  8.9811047E+02
 6.0416145E+01  9.0045416E+02
 6.0469585E+01  8.9890009E+02
 6.0523029E+01  8.9722589E+02
 6.0576469E+01  8.9731592E+02
 6.0629913E+01  8.9548767E+02
 6.0683353E+01  8.9214886E+02
 6.0736797E+01  8.9389087E+02
 6.0790237E+01  8.9554999E+02
 6.0843681E+01  8.9608838E+02
 6.0897121E+01  8.9339270E+02
 6.0950565E+01  8.8857208E+02
 6.1004005E+01  8.8835986E+02
 6.1057449E+01  8.8877441E+02
 6.1110889E+01  8.8895471E+02
 6.1164333E+01  8.8774475E+02
 6.1217773E+01  8.8508301E+02
 6.1271217E+01  8.8268445E+02
 6.1324657E+01  8.8211426E+02
 6.1378101E+01  8.8125439E+02
 6.1431541E+01  8.8010846E+02
 6.1484985E+01  8.7903644E+02
 6.1538425E+01  8.7678632E+02
 6.1591869E+01  8.7851996E+02
 6.1645309E+01  8.7552374E+02
 6.1698753E+01  8.7273486E+02
 6.1752193E+01  8.7310724E+02
 6.1805637E+01  8.7848700E+02
 6.1859077E+01  8.8098352E+02
 6.1912521E+01  8.7956262E+02
 6.1965961E+01  8.7906616E+02
 6.2019405E+01  8.8110510E+02
 6.2072845E+01  8.8339050E+02
 6.2126289E+01  8.8182538E+02
 6.2179729E+01  8.8162799E+02
 6.2233173E+01  8.8182965E+02
 6.2286613E+01  8.7853516E+02
 6.2340054E+01  8.7751855E+02
 6.2393497E+01  8.8010406E+02
 6.2446938E+01  8.7979333E+02
 6.2500381E+01  8.7757672E+02
 6.2553822E+01  8.7713672E+02
 6.2607265E+01  8.7993384E+02
 6.2660706E+01  8.8148694E+02
 6.2714149E+01  8.8066949E+02
 6.2767590E+01  8.8074597E+02
 6.2821033E+01  8.7925391E+02
 6.2874474E+01  8.7589868E+02
 6.2927917E+01  8.7151031E+02
 6.2981358E+01  8.7018005E+02
 6.3034801E+01  8.7056079E+02
 6.3088242E+01  8.7149390E+02
 6.3141685E+01  8.7063342E+02
 6.3195126E+01  8.7370703E+02
 6.3248569E+01  8.7292157E+02
 6.3302010E+01  8.7369580E+02
 6.3355453E+01  8.7136096E+02
 6.3408894E+01  8.7003119E+02
 6.3462337E+01  8.6623743E+02
 6.3515778E+01  8.6595923E+02
 6.3569221E+01  8.6392572E+02
 6.3622662E+01  8.6305072E+02
 6.3676105E+01  8.6199683E+02
 6.3729546E+01  8.6184131E+02
 6.3782990E+01  8.6122449E+02
 6.3836430E+01  8.6270160E+02
 6.3889874E+01  8.6431525E+02
 6.3943314E+01  8.6117542E+02
 6.3996758E+01  8.5753534E+02
 6.4050201E+01  8.5708124E+02
 6.4103638E+01  8.5361676E+02
 6.4157082E+01  8.5067871E+02
 6.4210526E+01  8.4942181E+02
 6.4263969E+01  8.4783893E+02
 6.4317406E+01  8.4694849E+02
 6.4370850E+01  8.4783649E+02
 6.4424294E+01  8.4696362E+02
 6.4477737E+01  8.4468652E+02
 6.4531174E+01  8.4364923E+02
 6.4584618E+01  8.4478204E+02
 6.4638062E+01  8.4566254E+02
 6.4691505E+01  8.4353796E+02
 6.4744942E+01  8.4176953E+02
 6.4798386E+01  8.4023785E+02
 6.4851830E+01  8.4079535E+02
 6.4905273E+01  8.3700244E+02
 6.4958710E+01  8.3596783E+02
 6.5012154E+01  8.3515796E+02
 6.5065598E+01  8.3339545E+02
 6.5119041E+01  8.3199554E+02
 6.5172478E+01  8.3382037E+02
 6.5225922E+01  8.3320691E+02
 6.5279366E+01  8.3420038E+02
 6.5332809E+01  8.3337085E+02
 6.5386246E+01  8.3040204E+02
 6.5439690E+01  8.3186176E+02
 6.5493134E+01  8.2975195E+02
 6.5546570E+01  8.2817548E+02
 6.5600014E+01  8.2609094E+02
 6.5653458E+01  8.2632837E+02
 6.5706902E+01  8.2515192E+02
 6.5760338E+01  8.2263489E+02
 6.5813782E+01  8.2424017E+02
 6.5867226E+01  8.2502014E+02
 6.5920670E+01  8.2483856E+02
 6.5974106E+01  8.2208789E+02
 6.6027550E+01  8.2162219E+02
 6.6080994E+01  8.1965570E+02
 6.6134438E+01  8.1815692E+02
 6.6187874E+01  8.1904120E+02
 6.6241318E+01  8.1856042E+02
 6.6294762E+01  8.1558527E+02
 6.6348206E+01  8.1506165E+02
 6.6401642E+01  8.1365698E+02
 6.6455086E+01  8.0979614E+02
 6.6508530E+01  8.1076080E+02
 6.6561974E+01  8.0950635E+02
 6.6615410E+01  8.1098090E+02
 6.6668854E+01  8.1194232E+02
 6.6722298E+01  8.1561560E+02
 6.6775742E+01  8.1334534E+02
 6.6829178E+01  8.1316669E+02
 6.6882622E+01  8.1248840E+02
 6.6936066E+01  8.1093835E+02
 6.6989510E+01  8.0675647E+02
 6.7042946E+01  8.0449841E+02
 6.7096390E+01  8.0342828E+02
 6.7149834E+01  8.0301031E+02
 6.7203278E+01  8.0356866E+02
 6.7256714E+01  8.0087537E+02
 6.7310158E+01  8.0138568E+02
 6.7363602E+01  8.0334662E+02
 6.7417046E+01  8.0186774E+02
 6.7470482E+01  7.9886481E+02
 6.7523926E+01  8.0141052E+02
 6.7577370E+01  8.0138629E+02
 6.7630814E+01  7.9938519E+02
 6.7684250E+01  7.9922925E+02
 6.7737694E+01  7.9903564E+02
 6.7791138E+01  7.9907526E+02
 6.7844582E+01  7.9490710E+02
 6.7898018E+01  7.9362115E+02
 6.7951462E+01  7.9296106E+02
 6.8004906E+01  7.9254181E+02
 6.8058350E+01  7.9311981E+02
 6.8111786E+01  7.9228198E+02
 6.8165230E+01  7.9173590E+02
 6.8218674E+01  7.9104694E+02
 6.8272118E+01  7.9127399E+02
 6.8325554E+01  7.9142426E+02
 6.8378998E+01  7.9317841E+02
 6.8432442E+01  7.9158136E+02
 6.8485878E+01  7.9229462E+02
 6.8539322E+01  7.8796259E+02
 6.8592766E+01  7.8294763E+02
 6.8646210E+01  7.8623395E+02
 6.8699646E+01  7.8828589E+02
 6.8753090E+01  7.8987787E+02
 6.8806534E+01  7.9227466E+02
 6.8859978E+01  7.9344623E+02
 6.8913414E+01  7.9494568E+02
 6.8966858E+01  7.9703613E+02
 6.9020302E+01  7.9820728E+02
 6.9073746E+01  7.9800537E+02
 6.9127182E+01  7.9640674E+02
 6.9180626E+01  7.9781274E+02
 6.9234070E+01  7.9821381E+02
 6.9287514E+01  7.9910675E+02
 6.9340950E+01  7.9975006E+02
 6.9394394E+01  7.9999109E+02
 6.9447838E+01  8.0224915E+02
 6.9501282E+01  8.0295020E+02
 6.9554718E+01  8.0465283E+02
 6.9608162E+01  8.0626331E+02
 6.9661606E+01  8.0525623E+02
 6.9715050E+01  8.0462299E+02
 6.9768486E+01  8.0139972E+02
 6.9821930E+01  8.0006329E+02
 6.9875374E+01  7.9928333E+02
 6.9928818E+01  7.9465863E+02
 6.9982254E+01  7.9524896E+02
 7.0035698E+01  7.9590741E+02
 7.0089142E+01  7.9378265E+02
 7.0142586E+01  7.9450409E+02
 7.0196022E+01  7.9381445E+02
 7.0249466E+01  7.9318195E+02
 7.0302910E+01  7.9510425E+02
 7.0356354E+01  7.9695300E+02
 7.0409790E+01  7.9465515E+02
 7.0463234E+01  7.9343439E+02
 7.0516678E+01  7.9212390E+02
 7.0570122E+01  7.9131720E+02
 7.0623558E+01  7.9077026E+02
 7.0677002E+01  7.8979248E+02
 7.0730446E+01  7.8997540E+02
 7.0783890E+01  7.8986810E+02
 7.0837326E+01  7.8797583E+02
 7.0890770E+01  7.8549872E+02
 7.0944214E+01  7.8499792E+02
 7.0997658E+01  7.8372620E+02
 7.1051094E+01  7.8359564E+02
 7.1104538E+01  7.8521899E+02
 7.1157982E+01  7.8613458E+02
 7.1211426E+01  7.8964221E+02
 7.1264862E+01  7.8807080E+02
 7.1318306E+01  7.8841431E+02
 7.1371750E+01  7.8829285E+02
 7.1425194E+01  7.8862219E+02
 7.1478630E+01  7.8928418E+02
 7.1532074E+01  7.9000165E+02
 7.1585518E+01  7.8754803E+02
 7.1638954E+01  7.8880774E+02
 7.1692398E+01  7.8831042E+02
 7.1745842E+01  7.8749438E+02
 7.1799286E+01  7.8740686E+02
 7.1852722E+01  7.8637201E+02
 7.1906166E+01  7.8855853E+02
 7.1959610E+01  7.8770465E+02
 7.2013054E+01  7.8962207E+02
 7.2066490E+01  7.8723273E+02
 7.2119934E+01  7.8598999E+02
 7.2173378E+01  7.8597241E+02
 7.2226822E+01  7.8797870E+02
 7.2280258E+01  7.8952533E+02
 7.2333702E+01  7.8808118E+02
 7.2387146E+01  7.8756110E+02
 7.2440590E+01  7.8365540E+02
 7.2494026E+01  7.8344824E+02
 7.2547470E+01  7.8239948E+02
 7.2600914E+01  7.7993262E+02
 7.2654358E+01  7.7911432E+02
 7.2707794E+01  7.8001770E+02
 7.2761238E+01  7.8131061E+02
 7.2814682E+01  7.8111713E+02
 7.2868126E+01  7.7841895E+02
 7.2921562E+01  7.7749005E+02
 7.2975006E+01  7.7857684E+02
 7.3028450E+01  7.7948328E+02
 7.3081894E+01  7.7904962E+02
 7.3135330E+01  7.7917883E+02
 7.3188774E+01  7.7403009E+02
 7.3242218E+01  7.7205988E+02
 7.3295662E+01  7.7097522E+02
 7.3349098E+01  7.7114136E+02
 7.3402542E+01  7.7187146E+02
 7.3455986E+01  7.7218781E+02
 7.3509430E+01  7.7286975E+02
 7.3562866E+01  7.7089246E+02
 7.3616310E+01  7.7088287E+02
 7.3669754E+01  7.6776874E+02
 7.3723198E+01  7.6747742E+02
 7.3776634E+01  7.6680408E+02
 7.3830078E+01  7.6662683E+02
 7.3883522E+01  7.6698438E+02
 7.3936966E+01  7.6234174E+02
 7.3990402E+01  7.6274591E+02
 7.4043846E+01  7.6160938E+02
 7.4097290E+01  7.6300568E+02
 7.4150734E+01  7.6337610E+02
 7.4204170E+01  7.6346283E+02
 7.4257614E+01  7.6553046E+02
 7.4311058E+01  7.6688885E+02
 7.4364502E+01  7.6624664E+02
 7.4417938E+01  7.6394006E+02
 7.4471382E+01  7.6174341E+02
 7.4524826E+01  7.5903760E+02
 7.4578262E+01  7.6011011E+02
 7.4631706E+01  7.6359406E+02
 7.4685150E+01  7.6114325E+02
 7.4738594E+01  7.6078870E+02
 7.4792030E+01  7.5867847E+02
 7.4845474E+01  7.5527826E+02
 7.4898918E+01  7.5552087E+02
 7.4952362E+01  7.5310760E+02
 7.5005798E+01  7.5439044E+02
 7.5059242E+01  7.5387225E+02
 7.5112686E+01  7.5522296E+02
 7.5166130E+01  7.5602521E+02
 7.5219566E+01  7.5381763E+02
 7.5273010E+01  7.5502649E+02
 7.5326454E+01  7.5338037E+02
 7.5379898E+01  7.5351013E+02
 7.5433334E+01  7.5161554E+02
 7.5486778E+01  7.5033295E+02
 7.5540222E+01  7.4771008E+02
 7.5593666E+01  7.4644305E+02
 7.5647102E+01  7.4706891E+02
 7.5700546E+01  7.4947083E+02
 7.5753990E+01  7.5134509E+02
 7.5807434E+01  7.4817603E+02
 7.5860870E+01  7.4863000E+02
 7.5914314E+01  7.5293536E+02
 7.5967758E+01  7.5357520E+02
 7.6021202E+01  7.5261664E+02
 7.6074638E+01  7.5138422E+02
 7.6128082E+01  7.5095697E+02
 7.6181526E+01  7.5491479E+02
 7.6234970E+01  7.5638220E+02
 7.6288406E+01  7.5301343E+02
 7.6341850E+01  7.5054932E+02
 7.6395294E+01  7.4968103E+02
 7.6448738E+01  7.5041644E+02
 7.6502174E+01  7.5059131E+02
 7.6555618E+01  7.5141425E+02
 7.6609062E+01  7.5006622E+02
 7.6662506E+01  7.4963617E+02
 7.6715942E+01  7.5120721E+02
 7.6769386E+01  7.5100037E+02
 7.6822830E+01  7.4900232E+02
 7.6876274E+01  7.5076965E+02
 7.6929710E+01  7.5141919E+02
 7.6983154E+01  7.5054376E+02
 7.7036598E+01  7.5155475E+02
 7.7090042E+01  7.4686163E+02
 7.7143478E+01  7.4519910E+02
 7.7196922E+01  7.4798523E+02
 7.7250366E+01  7.4721320E+02
 7.7303810E+01  7.4771698E+02
 7.7357246E+01  7.4734204E+02
 7.7410690E+01  7.4489685E+02
 7.7464134E+01  7.4150494E+02
 7.7517578E+01  7.4178314E+02
 7.7571014E+01  7.4479120E+02
 7.7624458E+01  7.4459924E+02
 7.7677902E+01  7.4428088E+02
 7.7731339E+01  7.4157349E+02
 7.7784782E+01  7.3803497E+02
 7.7838226E+01  7.3485950E+02
 7.7891670E+01  7.3686774E+02
 7.7945107E+01  7.3871124E+02
 7.7998550E+01  7.4176855E+02
 7.8051994E+01  7.4219879E+02
 7.8105438E+01  7.4139050E+02
 7.8158875E+01  7.3978003E+02
 7.8212318E+01  7.3923724E+02
 7.8265762E+01  7.4004266E+02
 7.8319206E+01  7.4404480E+02
 7.8372643E+01  7.4191144E+02
 7.8426086E+01  7.4106097E+02
 7.8479530E+01  7.4217725E+02
 7.8532974E+01  7.4311200E+02
 7.8586411E+01  7.4156372E+02
 7.8639854E+01  7.4187897E+02
 7.8693298E+01  7.4229791E+02
 7.8746742E+01  7.4002679E+02
 7.8800179E+01  7.3952576E+02
 7.8853622E+01  7.3924762E+02
 7.8907066E+01  7.3943689E+02
 7.8960510E+01  7.4048822E+02
 7.9013947E+01  7.3922162E+02
 7.9067390E+01  7.3845367E+02
 7.9120834E+01  7.3881604E+02
 7.9174278E+01  7.3906635E+02
 7.9227715E+01  7.3694318E+02
 7.9281158E+01  7.3656104E+02
 7.9334602E+01  7.3616541E+02
 7.9388046E+01  7.3407385E+02
 7.9441483E+01  7.3588263E+02
 7.9494926E+01  7.3339349E+02
 7.9548370E+01  7.3503131E+02
 7.9601814E+01  7.3389630E+02
 7.9655251E+01  7.3278705E+02
 7.9708694E+01  7.3061810E+02
 7.9762138E+01  7.2849719E+02
 7.9815582E+01  7.2839667E+02
 7.9869019E+01  7.2958038E+02
 7.9922462E+01  7.2954456E+02
 7.9975906E+01  7.2959637E+02
 8.0029350E+01  7.2872278E+02
 8.0082787E+01  7.2757013E+02
 8.0136230E+01  7.2543695E+02
 8.0189674E+01  7.2755005E+02
 8.0243118E+01  7.2635645E+02
 8.0296555E+01  7.2435364E+02
 8.0349998E+01  7.2356744E+02
 8.0403442E+01  7.2390173E+02
 8.0456886E+01  7.2376379E+02
 8.0510323E+01  7.2538599E+02
 8.0563766E+01  7.2309100E+02
 8.0617210E+01  7.2488098E+02
 8.0670647E+01  7.2240057E+02
 8.0724091E+01  7.2188770E+02
 8.0777534E+01  7.2191736E+02
 8.0830978E+01  7.2231348E+02
 8.0884415E+01  7.2109338E+02
 8.0937859E+01  7.2214075E+02
 8.0991302E+01  7.2287665E+02
 8.1044746E+01  7.2337689E+02
 8.1098183E+01  7.2393756E+02
 8.1151627E+01  7.1850018E+02
 8.1205070E+01  7.1905902E+02
 8.1258514E+01  7.1935242E+02
 8.1311951E+01  7.1958398E+02
 8.1365395E+01  7.1960126E+02
 8.1418839E+01  7.1914087E+02
 8.1472282E+01  7.1917096E+02
 8.1525719E+01  7.1822571E+02
 8.1579163E+01  7.1755005E+02
 8.1632607E+01  7.1461621E+02
 8.1686050E+01  7.1544574E+02
 8.1739487E+01  7.1868597E+02
 8.1792931E+01  7.1593317E+02
 8.1846375E+01  7.1711871E+02
 8.1899818E+01  7.1590057E+02
 8.1953255E+01  7.1533960E+02
 8.2006699E+01  7.1364789E+02
 8.2060143E+01  7.1642560E+02
 8.2113586E+01  7.1275342E+02
 8.2167023E+01  7.1161926E+02
 8.2220467E+01  7.0857349E+02
 8.2273911E+01  7.0573376E+02
 8.2327354E+01  7.0608417E+02
 8.2380791E+01  7.0584052E+02
 8.2434235E+01  7.0556702E+02
 8.2487679E+01  7.0973016E+02
 8.2541122E+01  7.0947955E+02
 8.2594559E+01  7.0667877E+02
 8.2648003E+01  7.0393872E+02
 8.2701447E+01  7.0557465E+02
 8.2754890E+01  7.0620868E+02
 8.2808327E+01  7.0581671E+02
 8.2861771E+01  7.0519824E+02
 8.2915215E+01  7.0303003E+02
 8.2968658E+01  7.0195587E+02
 8.3022095E+01  7.0213434E+02
 8.3075539E+01  7.0169513E+02
 8.3128983E+01  7.0190631E+02
 8.3182426E+01  7.0100934E+02
 8.3235863E+01  7.0164526E+02
 8.3289307E+01  7.0182965E+02
 8.3342751E+01  7.0567291E+02
 8.3396194E+01  7.0648676E+02
 8.3449631E+01  7.0146002E+02
 8.3503075E+01  7.0088928E+02
 8.3556519E+01  7.0062762E+02
 8.3609955E+01  7.0115485E+02
 8.3663399E+01  7.0078168E+02
 8.3716843E+01  7.0173505E+02
 8.3770287E+01  7.0200751E+02
 8.3823723E+01  6.9920959E+02
 8.3877167E+01  6.9900409E+02
 8.3930611E+01  6.9884357E+02
 8.3984055E+01  6.9748511E+02
 8.4037491E+01  6.9704065E+02
 8.4090935E+01  6.9465485E+02
 8.4144379E+01  6.9302997E+02
 8.4197823E+01  6.9329767E+02
 8.4251259E+01  6.9270294E+02
 8.4304703E+01  6.9380591E+02
 8.4358147E+01  6.9385529E+02
 8.4411591E+01  6.9058374E+02
 8.4465027E+01  6.9079376E+02
 8.4518471E+01  6.8954602E+02
 8.4571915E+01  6.8683765E+02
 8.4625359E+01  6.8738654E+02
 8.4678795E+01  6.8912262E+02
 8.4732239E+01  6.9039410E+02
 8.4785683E+01  6.9454730E+02
 8.4839127E+01  6.9589996E+02
 8.4892563E+01  6.9570062E+02
 8.4946007E+01  6.9659912E+02
 8.4999451E+01  6.9593524E+02
 8.5052895E+01  6.9490277E+02
 8.5106331E+01  6.9686389E+02
 8.5159775E+01  6.9702631E+02
 8.5213219E+01  6.9779065E+02
 8.5266663E+01  6.9908093E+02
 8.5320099E+01  6.9881940E+02
 8.5373543E+01  6.9922516E+02
 8.5426987E+01  6.9671796E+02
 8.5480431E+01  6.9607477E+02
 8.5533867E+01  6.9760089E+02
 8.5587311E+01  6.9691821E+02
 8.5640755E+01  6.9487164E+02
 8.5694199E+01  6.9718420E+02
 8.5747635E+01  6.9850653E+02
 8.5801079E+01  6.9686377E+02
 8.5854523E+01  6.9737640E+02
 8.5907967E+01  6.9753156E+02
 8.5961403E+01  6.9765118E+02
 8.6014847E+01  6.9664429E+02
 8.6068291E+01  6.9465747E+02
 8.6121735E+01  6.9413080E+02
 8.6175171E+01  6.9364294E+02
 8.6228615E+01  6.9017462E+02
 8.6282059E+01  6.8854169E+02
 8.6335503E+01  6.9002032E+02
 8.6388939E+01  6.9161536E+02
 8.6442383E+01  6.8934021E+02
 8.6495827E+01  6.8927972E+02
 8.6549271E+01  6.9145685E+02
 8.6602707E+01  6.9126123E+02
 8.6656151E+01  6.9161023E+02
 8.6709595E+01  6.8888562E+02
 8.6763031E+01  6.8830383E+02
 8.6816475E+01  6.8463892E+02
 8.6869919E+01  6.8255151E+02
 8.6923363E+01  6.8223181E+02
 8.6976799E+01  6.8112659E+02
 8.7030243E+01  6.8520917E+02
 8.7083687E+01  6.8509344E+02
 8.7137131E+01  6.8603534E+02
 8.7190567E+01  6.8591473E+02
 8.7244011E+01  6.8583716E+02
 8.7297455E+01  6.8696771E+02
 8.7350899E+01  6.8976093E+02
 8.7404335E+01  6.8931952E+02
 8.7457779E+01  6.8892993E+02
 8.7511223E+01  6.8532141E+02
 8.7564667E+01  6.8551965E+02
 8.7618103E+01  6.8802893E+02
 8.7671547E+01  6.8821973E+02
 8.7724991E+01  6.8814667E+02
 8.7778435E+01  6.8711761E+02
 8.7831871E+01  6.8689948E+02
 8.7885315E+01  6.8828235E+02
 8.7938759E+01  6.8918713E+02
 8.7992203E+01  6.9127222E+02
 8.8045639E+01  6.8839685E+02
 8.8099083E+01  6.8732990E+02
 8.8152527E+01  6.8693524E+02
 8.8205971E+01  6.8333118E+02
 8.8259407E+01  6.8503833E+02
 8.8312851E+01  6.8538745E+02
 8.8366295E+01  6.8664240E+02
 8.8419739E+01  6.8278668E+02
 8.8473175E+01  6.8250708E+02
 8.8526619E+01  6.7894470E+02
 8.8580063E+01  6.7834100E+02
 8.8633507E+01  6.7899005E+02
 8.8686943E+01  6.7657806E+02
 8.8740387E+01  6.7570844E+02
 8.8793831E+01  6.7697491E+02
 8.8847275E+01  6.7669891E+02
 8.8900711E+01  6.7964709E+02
 8.8954155E+01  6.7869720E+02
 8.9007599E+01  6.7574597E+02
 8.9061043E+01  6.7585663E+02
 8.9114479E+01  6.7456293E+02
 8.9167923E+01  6.7431189E+02
 8.9221367E+01  6.7233026E+02
 8.9274811E+01  6.7505450E+02
 8.9328247E+01  6.7834296E+02
 8.9381691E+01  6.7850745E+02
 8.9435135E+01  6.7400812E+02
 8.9488579E+01  6.7457648E+02
 8.9542015E+01  6.7471606E+02
 8.9595459E+01  6.7539136E+02
 8.9648903E+01  6.7879272E+02
 8.9702339E+01  6.8262494E+02
 8.9755783E+01  6.7932214E+02
 8.9809227E+01  6.7933405E+02
 8.9862671E+01  6.7890021E+02
 8.9916107E+01  6.7789801E+02
 8.9969551E+01  6.7731580E+02
 9.0022995E+01  6.7781085E+02
 9.0076439E+01  6.7676746E+02
 9.0129875E+01  6.7566754E+02
 9.0183319E+01  6.7359399E+02
 9.0236763E+01  6.7327582E+02
 9.0290207E+01  6.7188019E+02
 9.0343643E+01  6.7243628E+02
 9.0397087E+01  6.7168414E+02
 9.0450531E+01  6.7291443E+02
 9.0503975E+01  6.7270844E+02
 9.0557411E+01  6.7479077E+02
 9.0610855E+01  6.7358704E+02
 9.0664299E+01  6.7569208E+02
 9.0717743E+01  6.7299738E+02
 9.0771179E+01  6.7031207E+02
 9.0824623E+01  6.6762836E+02
 9.0878067E+01  6.6599475E+02
 9.0931511E+01  6.6761475E+02
 9.0984947E+01  6.6511011E+02
 9.1038391E+01  6.6814594E+02
 9.1091835E+01  6.6997058E+02
 9.1145279E+01  6.6930927E+02
 9.1198715E+01  6.6982599E+02
 9.1252159E+01  6.6700043E+02
 9.1305603E+01  6.6375543E+02
 9.1359047E+01  6.6175232E+02
 9.1412483E+01  6.5946967E+02
 9.1465927E+01  6.6207538E+02
 9.1519371E+01  6.6596326E+02
 9.1572815E+01  6.6607574E+02
 9.1626251E+01  6.6665399E+02
 9.1679695E+01  6.6690277E+02
 9.1733139E+01  6.6773114E+02
 9.1786583E+01  6.6809302E+02
 9.1840019E+01  6.7057434E+02
 9.1893463E+01  6.7142133E+02
 9.1946907E+01  6.7004926E+02
 9.2000351E+01  6.6886615E+02
 9.2053787E+01  6.6953009E+02
 9.2107231E+01  6.6785760E+02
 9.2160675E+01  6.6577081E+02
 9.2214119E+01  6.6393347E+02
 9.2267555E+01  6.6701935E+02
 9.2320999E+01  6.6589020E+02
 9.2374443E+01  6.6888971E+02
 9.2427887E+01  6.6804578E+02
 9.2481323E+01  6.6703082E+02
 9.2534767E+01  6.6460382E+02
 9.2588211E+01  6.6746582E+02
 9.2641655E+01  6.6705481E+02
 9.2695091E+01  6.6771069E+02
 9.2748535E+01  6.6442230E+02
 9.2801979E+01  6.6337799E+02
 9.2855415E+01  6.6511523E+02
 9.2908859E+01  6.6276007E+02
 9.2962303E+01  6.6045557E+02
 9.3015747E+01  6.6053387E+02
 9.3069183E+01  6.6231757E+02
 9.3122627E+01  6.5888629E+02
 9.3176071E+01  6.5560510E+02
 9.3229515E+01  6.5266418E+02
 9.3282951E+01  6.5418353E+02
 9.3336395E+01  6.5567102E+02
 9.3389839E+01  6.5787073E+02
 9.3443283E+01  6.5894104E+02
 9.3496719E+01  6.5732214E+02
 9.3550163E+01  6.5663037E+02
 9.3603607E+01  6.5822302E+02
 9.3657051E+01  6.6067450E+02
 9.3710487E+01  6.5815479E+02
 9.3763931E+01  6.5925092E+02
 9.3817375E+01  6.6139203E+02
 9.3870819E+01  6.6090009E+02
 9.3924255E+01  6.6474823E+02
 9.3977699E+01  6.6738281E+02
 9.4031143E+01  6.6949261E+02
 9.4084587E+01  6.7247974E+02
 9.4138023E+01  6.7303992E+02
 9.4191467E+01  6.7238782E+02
 9.4244911E+01  6.7381769E+02
 9.4298355E+01  6.7377148E+02
 9.4351791E+01  6.7319531E+02
 9.4405235E+01  6.7598145E+02
 9.4458679E+01  6.7465662E+02
 9.4512123E+01  6.7374866E+02
 9.4565559E+01  6.7248706E+02
 9.4619003E+01  6.7399103E+02
 9.4672447E+01  6.7502399E+02
 9.4725891E+01  6.7484174E+02
 9.4779327E+01  6.7576843E+02
 9.4832771E+01  6.7552991E+02
 9.4886215E+01  6.7414337E+02
 9.4939659E+01  6.7160767E+02
 9.4993095E+01  6.7157843E+02
 9.5046539E+01  6.7625549E+02
 9.5099983E+01  6.7618372E+02
 9.5153427E+01  6.7628003E+02
 9.5206863E+01  6.7344617E+02
 9.5260307E+01  6.7042609E+02
 9.5313751E+01  6.6953766E+02
 9.5367195E+01  6.6637219E+02
 9.5420631E+01  6.6668878E+02
 9.5474075E+01  6.6895245E+02
 9.5527519E+01  6.7031689E+02
 9.5580963E+01  6.6869025E+02
 9.5634399E+01  6.7089154E+02
 9.5687843E+01  6.6570056E+02
 9.5741287E+01  6.6397925E+02
 9.5794724E+01  6.6123517E+02
 9.5848167E+01  6.5901300E+02
 9.5901611E+01  6.6024078E+02
 9.5955055E+01  6.6251703E+02
 9.6008492E+01  6.6161609E+02
 9.6061935E+01  6.6191888E+02
 9.6115379E+01  6.6470648E+02
 9.6168823E+01  6.6512512E+02
 9.6222260E+01  6.6528406E+02
 9.6275703E+01  6.6438263E+02
 9.6329147E+01  6.6404919E+02
 9.6382591E+01  6.6310339E+02
 9.6436028E+01  6.6105225E+02
 9.6489471E+01  6.6262457E+02
 9.6542915E+01  6.6377563E+02
 9.6596359E+01  6.6080615E+02
 9.6649796E+01  6.5774725E+02
 9.6703239E+01  6.5991962E+02
 9.6756683E+01  6.5707581E+02
 9.6810127E+01  6.5709552E+02
 9.6863564E+01  6.5903345E+02
 9.6917007E+01  6.6035156E+02
 9.6970451E+01  6.6077704E+02
 9.7023895E+01  6.6189105E+02
 9.7077332E+01  6.6244629E+02
 9.7130775E+01  6.5848859E+02
 9.7184219E+01  6.5977454E+02
 9.7237663E+01  6.6023071E+02
 9.7291100E+01  6.5766943E+02
 9.7344543E+01  6.5483618E+02
 9.7397987E+01  6.5550708E+02
 9.7451431E+01  6.5432184E+02
 9.7504868E+01  6.5241547E+02
 9.7558311E+01  6.5179163E+02
 9.7611755E+01  6.4998938E+02
 9.7665199E+01  6.4969971E+02
 9.7718636E+01  6.5168579E+02
 9.7772079E+01  6.4906812E+02
 9.7825523E+01  6.5031500E+02
 9.7878967E+01  6.4687933E+02
 9.7932404E+01  6.4830725E+02
 9.7985847E+01  6.4700812E+02
 9.8039291E+01  6.4657410E+02
 9.8092735E+01  6.4854022E+02
 9.8146172E+01  6.4770459E+02
 9.8199615E+01  6.4830835E+02
 9.8253059E+01  6.5220038E+02
 9.8306503E+01  6.5418701E+02
 9.8359940E+01  6.5587872E+02
 9.8413383E+01  6.5692474E+02
 9.8466827E+01  6.6179572E+02
 9.8520271E+01  6.6374261E+02
 9.8573708E+01  6.6651886E+02
 9.8627151E+01  6.6549902E+02
 9.8680595E+01  6.6535931E+02
 9.8734039E+01  6.6396997E+02
 9.8787476E+01  6.6482922E+02
 9.8840919E+01  6.6299268E+02
 9.8894363E+01  6.6521588E+02
 9.8947800E+01  6.6595605E+02
 9.9001244E+01  6.6440521E+02
 9.9054688E+01  6.6772095E+02
 9.9108131E+01  6.6465930E+02
 9.9161568E+01  6.6230164E+02
 9.9215012E+01  6.6381702E+02
 9.9268456E+01  6.6371503E+02
 9.9321899E+01  6.5906189E+02
 9.9375336E+01  6.5858960E+02
 9.9428780E+01  6.5571326E+02
 9.9482224E+01  6.5887994E+02
 9.9535667E+01  6.6068616E+02
 9.9589104E+01  6.5992670E+02
 9.9642548E+01  6.5903583E+02
 9.9695992E+01  6.5526556E+02
 9.9749435E+01  6.5726373E+02
 9.9802872E+01  6.5924371E+02
 9.9856316E+01  6.5777380E+02
 9.9909760E+01  6.5502985E+02
 9.9963203E+01  6.5390704E+02
 1.0001664E+02  6.5183844E+02
 1.0007008E+02  6.5594757E+02
 1.0012353E+02  6.5335883E+02
 1.0017697E+02  6.5204883E+02
 1.0023041E+02  6.5150873E+02
 1.0028385E+02  6.5029681E+02
 1.0033730E+02  6.5018768E+02
 1.0039074E+02  6.4969562E+02
 1.0044418E+02  6.4866034E+02
 1.0049762E+02  6.4681561E+02
 1.0055106E+02  6.4632782E+02
 1.0060451E+02  6.4746600E+02
 1.0065794E+02  6.4857587E+02
 1.0071139E+02  6.5049493E+02
 1.0076483E+02  6.4960809E+02
 1.0081828E+02  6.4762927E+02
 1.0087171E+02  6.4780072E+02
 1.0092516E+02  6.4697479E+02
 1.0097860E+02  6.4736603E+02
 1.0103204E+02  6.4734131E+02
 1.0108548E+02  6.4768378E+02
 1.0113892E+02  6.4569659E+02
 1.0119237E+02  6.4479816E+02
 1.0124581E+02  6.4602203E+02
 1.0129925E+02  6.4663104E+02
 1.0135269E+02  6.4803577E+02
 1.0140614E+02  6.4628278E+02
 1.0145958E+02  6.4504272E+02
 1.0151302E+02  6.4372986E+02
 1.0156646E+02  6.4354779E+02
 1.0161990E+02  6.4093823E+02
 1.0167335E+02  6.3950574E+02
 1.0172678E+02  6.3763617E+02
 1.0178023E+02  6.3752142E+02
 1.0183367E+02  6.3372101E+02
 1.0188711E+02  6.3608148E+02
 1.0194055E+02  6.3553961E+02
 1.0199400E+02  6.3715533E+02
 1.0204744E+02  6.3280792E+02
 1.0210088E+02  6.3349445E+02
 1.0215432E+02  6.2805786E+02
 1.0220776E+02  6.2575635E+02
 1.0226121E+02  6.2562091E+02
 1.0231464E+02  6.2488641E+02
 1.0236809E+02  6.2627197E+02
 1.0242153E+02  6.2621381E+02
 1.0247498E+02  6.2771368E+02
 1.0252841E+02  6.2504095E+02
 1.0258186E+02  6.1925336E+02
 1.0263530E+02  6.1752167E+02
 1.0268874E+02  6.1703174E+02
 1.0274218E+02  6.2099445E+02
 1.0279562E+02  6.1975031E+02
 1.0284907E+02  6.1872717E+02
 1.0290251E+02  6.2019727E+02
 1.0295595E+02  6.2204108E+02
 1.0300939E+02  6.2235034E+02
 1.0306284E+02  6.2134906E+02
 1.0311628E+02  6.2208038E+02
 1.0316972E+02  6.2198816E+02
 1.0322316E+02  6.2004272E+02
 1.0327660E+02  6.1554431E+02
 1.0333005E+02  6.1355597E+02
 1.0338348E+02  6.1725623E+02
 1.0343693E+02  6.1484222E+02
 1.0349037E+02  6.1226538E+02
 1.0354382E+02  6.1169470E+02
 1.0359725E+02  6.1186823E+02
 1.0365070E+02  6.1233685E+02
 1.0370414E+02  6.1170978E+02
 1.0375758E+02  6.1178583E+02
 1.0381102E+02  6.0962561E+02
 1.0386446E+02  6.0766388E+02
 1.0391791E+02  6.0722583E+02
 1.0397135E+02  6.0848218E+02
 1.0402479E+02  6.1083777E+02
 1.0407823E+02  6.1050049E+02
 1.0413168E+02  6.0823480E+02
 1.0418512E+02  6.0654358E+02
 1.0423856E+02  6.0704626E+02
 1.0429200E+02  6.0459894E+02
 1.0434544E+02  6.0389331E+02
 1.0439889E+02  6.0210205E+02
 1.0445232E+02  6.0310724E+02
 1.0450577E+02  6.0056641E+02
 1.0455921E+02  6.0039380E+02
 1.0461266E+02  5.9565308E+02
 1.0466609E+02  5.9393604E+02
 1.0471954E+02  5.9341272E+02
 1.0477298E+02  5.8847260E+02
 1.0482642E+02  5.8789099E+02
 1.0487986E+02  5.8696350E+02
 1.0493330E+02  5.8683289E+02
 1.0498675E+02  5.8348761E+02
 1.0504018E+02  5.8534570E+02
 1.0509363E+02  5.8808270E+02
 1.0514707E+02  5.8859729E+02
 1.0520052E+02  5.8519696E+02
 1.0525395E+02  5.8518982E+02
 1.0530740E+02  5.8244928E+02
 1.0536084E+02  5.8015918E+02
 1.0541428E+02  5.7873224E+02
 1.0546772E+02  5.7125696E+02
 1.0552116E+02  5.7021161E+02
 1.0557461E+02  5.6584515E+02
 1.0562805E+02  5.6151031E+02
 1.0568149E+02  5.5447852E+02
 1.0573493E+02  5.5161615E+02
 1.0578838E+02  5.4781586E+02
 1.0584182E+02  5.4341724E+02
 1.0589526E+02  5.3938965E+02
 1.0594870E+02  5.3441968E+02
 1.0600214E+02  5.3117426E+02
 1.0605559E+02  5.2674567E+02
 1.0610902E+02  5.2444196E+02
 1.0616247E+02  5.2082416E+02
 1.0621591E+02  5.1763647E+02
 1.0626936E+02  5.1616376E+02
 1.0632279E+02  5.1219958E+02
 1.0637624E+02  5.0678864E+02
 1.0642968E+02  5.0158685E+02
 1.0648312E+02  5.0128156E+02
 1.0653656E+02  4.9355719E+02
 1.0659000E+02  4.8649185E+02
 1.0664345E+02  4.7851056E+02
 1.0669689E+02  4.7468399E+02
 1.0675033E+02  4.7042065E+02
 1.0680377E+02  4.6599496E+02
 1.0685722E+02  4.5852695E+02
 1.0691066E+02  4.5498004E+02
 1.0696410E+02  4.5097433E+02
 1.0701754E+02  4.4443137E+02
 1.0707098E+02  4.3891306E+02
 1.0712443E+02  4.3217294E+02
 1.0717786E+02  4.2625067E+02
 1.0723131E+02  4.2078378E+02
 1.0728475E+02  4.1614191E+02
 1.0733820E+02  4.0981122E+02
 1.0739163E+02  4.0201999E+02
 1.0744508E+02  3.9790274E+02
 1.0749852E+02  3.9288217E+02
 1.0755196E+02  3.8440909E+02
 1.0760540E+02  3.7837970E+02
 1.0765884E+02  3.7111353E+02
 1.0771229E+02  3.6438824E+02
 1.0776573E+02  3.5700421E+02
 1.0781917E+02  3.5204340E+02
 1.0787261E+02  3.4625397E+02
 1.0792606E+02  3.3978674E+02
 1.0797949E+02  3.3173950E+02
 1.0803294E+02  3.2307202E+02
 1.0808638E+02  3.1609808E+02
 1.0813982E+02  3.1042819E+02
 1.0819326E+02  3.0419284E+02
 1.0824670E+02  2.9980780E+02
 1.0830015E+02  2.9246149E+02
 1.0835359E+02  2.8609183E+02
 1.0840703E+02  2.7892285E+02
 1.0846047E+02  2.7255594E+02
 1.0851392E+02  2.6455359E+02
 1.0856736E+02  2.5861206E+02
 1.0862080E+02  2.5373853E+02
 1.0867424E+02  2.4759799E+02
 1.0872768E+02  2.4365253E+02
 1.0878113E+02  2.3704485E+02
 1.0883456E+02  2.3110466E+02
 1.0888801E+02  2.2628188E+02
 1.0894145E+02  2.2197449E+02
 1.0899490E+02  2.1746165E+02
 1.0904833E+02  2.1395103E+02
 1.0910178E+02  2.1082753E+02
 1.0915522E+02  2.0763466E+02
 1.0920866E+02  2.0172675E+02
 1.0926210E+02  1.9665675E+02
 1.0931554E+02  1.9548033E+02
 1.0936899E+02  1.9381776E+02
 1.0942243E+02  1.9420755E+02
